position,velocity,acceleration,jerk,heading,dt,x,y
0.000, 0.000, 0.000, 0.000, 0.000, 0.020, 21.700, 21.090
0.003, 0.160, 7.999, 399.968, -0.000, 0.020, 21.697, 21.090
0.010, 0.320, 7.995, -0.193, -0.000, 0.020, 21.690, 21.090
0.019, 0.480, 7.988, -0.385, -0.000, 0.020, 21.681, 21.090
0.032, 0.639, 7.976, -0.576, -0.000, 0.020, 21.668, 21.090
0.048, 0.798, 7.961, -0.763, -0.000, 0.020, 21.652, 21.090
0.067, 0.957, 7.942, -0.947, -0.000, 0.020, 21.633, 21.090
0.089, 1.116, 7.920, -1.125, -0.000, 0.020, 21.611, 21.090
0.115, 1.274, 7.894, -1.299, -0.000, 0.020, 21.585, 21.090
0.143, 1.431, 7.864, -1.465, -0.000, 0.020, 21.557, 21.090
0.175, 1.587, 7.832, -1.625, -0.001, 0.020, 21.525, 21.090
0.210, 1.743, 7.796, -1.777, -0.001, 0.020, 21.490, 21.090
0.248, 1.899, 7.758, -1.921, -0.001, 0.020, 21.452, 21.090
0.289, 2.053, 7.717, -2.056, -0.002, 0.020, 21.411, 21.090
0.333, 2.206, 7.673, -2.182, -0.003, 0.020, 21.367, 21.090
0.380, 2.359, 7.627, -2.299, -0.003, 0.020, 21.320, 21.091
0.431, 2.510, 7.579, -2.405, -0.004, 0.020, 21.269, 21.091
0.484, 2.661, 7.529, -2.502, -0.005, 0.020, 21.216, 21.091
0.540, 2.811, 7.477, -2.588, -0.007, 0.020, 21.160, 21.091
0.599, 2.959, 7.424, -2.663, -0.008, 0.020, 21.101, 21.092
0.661, 3.106, 7.369, -2.727, -0.010, 0.020, 21.039, 21.092
0.726, 3.253, 7.314, -2.780, -0.012, 0.020, 20.974, 21.093
0.794, 3.398, 7.257, -2.821, -0.014, 0.020, 20.906, 21.094
0.865, 3.542, 7.200, -2.850, -0.016, 0.020, 20.835, 21.095
0.939, 3.685, 7.143, -2.866, -0.019, 0.020, 20.761, 21.096
1.015, 3.826, 7.086, -2.869, -0.023, 0.020, 20.685, 21.098
1.095, 3.967, 7.029, -2.857, -0.026, 0.020, 20.605, 21.100
1.177, 4.106, 6.972, -2.829, -0.030, 0.020, 20.523, 21.102
1.262, 4.245, 6.916, -2.785, -0.034, 0.020, 20.438, 21.105
1.349, 4.382, 6.862, -2.722, -0.039, 0.020, 20.351, 21.108
1.440, 4.518, 6.809, -2.639, -0.044, 0.020, 20.260, 21.112
1.533, 4.653, 6.758, -2.533, -0.050, 0.020, 20.168, 21.116
1.629, 4.788, 6.710, -2.402, -0.056, 0.020, 20.072, 21.121
1.727, 4.921, 6.665, -2.244, -0.063, 0.020, 19.974, 21.127
1.828, 5.053, 6.624, -2.056, -0.070, 0.020, 19.873, 21.134
1.932, 5.185, 6.588, -1.834, -0.077, 0.020, 19.769, 21.141
2.038, 5.316, 6.556, -1.576, -0.085, 0.020, 19.663, 21.150
2.147, 5.447, 6.531, -1.278, -0.094, 0.020, 19.555, 21.160
2.259, 5.577, 6.512, -0.937, -0.103, 0.020, 19.444, 21.171
2.373, 5.707, 6.501, -0.552, -0.113, 0.020, 19.330, 21.183
2.489, 5.837, 6.498, -0.120, -0.123, 0.020, 19.215, 21.197
2.609, 5.967, 6.506, 0.361, -0.134, 0.020, 19.096, 21.212
2.731, 6.098, 6.523, 0.891, -0.146, 0.020, 18.975, 21.229
2.855, 6.229, 6.553, 1.469, -0.158, 0.020, 18.852, 21.248
2.983, 6.361, 6.595, 2.093, -0.170, 0.020, 18.727, 21.269
3.112, 6.494, 6.650, 2.759, -0.183, 0.020, 18.599, 21.292
3.245, 6.628, 6.719, 3.460, -0.196, 0.020, 18.469, 21.317
3.380, 6.764, 6.803, 4.190, -0.210, 0.020, 18.336, 21.344
3.518, 6.902, 6.902, 4.937, -0.225, 0.020, 18.201, 21.374
3.659, 7.042, 7.015, 5.691, -0.239, 0.020, 18.064, 21.406
3.803, 7.185, 7.144, 6.438, -0.254, 0.020, 17.925, 21.441
3.949, 7.331, 7.287, 7.164, -0.269, 0.020, 17.783, 21.479
4.099, 7.480, 7.445, 7.853, -0.285, 0.020, 17.639, 21.520
4.252, 7.632, 7.614, 8.489, -0.300, 0.020, 17.493, 21.564
4.405, 7.662, 1.480, -306.703, -0.316, 0.020, 17.347, 21.610
4.558, 7.676, 0.727, -37.664, -0.331, 0.020, 17.202, 21.659
4.712, 7.694, 0.865, 6.878, -0.346, 0.020, 17.057, 21.710
4.867, 7.713, 0.993, 6.413, -0.360, 0.020, 16.912, 21.764
5.021, 7.736, 1.111, 5.924, -0.374, 0.020, 16.767, 21.819
5.177, 7.760, 1.220, 5.421, -0.388, 0.020, 16.623, 21.877
5.332, 7.786, 1.318, 4.913, -0.401, 0.020, 16.480, 21.937
5.489, 7.815, 1.406, 4.411, -0.413, 0.020, 16.336, 21.999
5.645, 7.844, 1.485, 3.921, -0.425, 0.020, 16.193, 22.062
5.803, 7.875, 1.554, 3.451, -0.437, 0.020, 16.050, 22.128
5.961, 7.908, 1.614, 3.007, -0.448, 0.020, 15.907, 22.196
6.120, 7.941, 1.666, 2.592, -0.458, 0.020, 15.764, 22.265
6.279, 7.975, 1.710, 2.211, -0.468, 0.020, 15.621, 22.337
6.440, 8.010, 1.747, 1.864, -0.477, 0.020, 15.479, 22.409
6.601, 8.046, 1.778, 1.553, -0.485, 0.020, 15.336, 22.484
6.762, 8.082, 1.804, 1.278, -0.493, 0.020, 15.193, 22.560
6.925, 8.118, 1.824, 1.037, -0.500, 0.020, 15.050, 22.637
7.088, 8.155, 1.841, 0.830, -0.506, 0.020, 14.907, 22.716
7.251, 8.192, 1.854, 0.654, -0.512, 0.020, 14.764, 22.795
7.416, 8.229, 1.864, 0.506, -0.517, 0.020, 14.621, 22.876
7.581, 8.267, 1.872, 0.385, -0.521, 0.020, 14.477, 22.958
7.747, 8.304, 1.878, 0.286, -0.524, 0.020, 14.334, 23.041
7.914, 8.342, 1.882, 0.208, -0.527, 0.020, 14.189, 23.125
8.082, 8.380, 1.885, 0.147, -0.529, 0.020, 14.044, 23.210
8.250, 8.417, 1.887, 0.099, -0.531, 0.020, 13.899, 23.295
8.419, 8.455, 1.888, 0.061, -0.532, 0.020, 13.753, 23.380
8.589, 8.493, 1.889, 0.031, -0.532, 0.020, 13.607, 23.467
8.760, 8.531, 1.889, 0.004, -0.531, 0.020, 13.460, 23.553
8.931, 8.568, 1.888, -0.022, -0.530, 0.020, 13.312, 23.640
9.103, 8.606, 1.887, -0.051, -0.528, 0.020, 13.164, 23.727
9.276, 8.644, 1.885, -0.085, -0.526, 0.020, 13.014, 23.814
9.450, 8.682, 1.883, -0.129, -0.522, 0.020, 12.864, 23.901
9.624, 8.719, 1.879, -0.185, -0.518, 0.020, 12.713, 23.987
9.799, 8.757, 1.874, -0.257, -0.513, 0.020, 12.560, 24.074
9.975, 8.794, 1.867, -0.347, -0.508, 0.020, 12.407, 24.160
10.152, 8.831, 1.858, -0.459, -0.502, 0.020, 12.252, 24.245
10.329, 8.868, 1.846, -0.597, -0.495, 0.020, 12.097, 24.330
10.507, 8.905, 1.831, -0.762, -0.488, 0.020, 11.939, 24.414
10.686, 8.941, 1.812, -0.957, -0.480, 0.020, 11.781, 24.497
10.866, 8.977, 1.788, -1.185, -0.471, 0.020, 11.622, 24.579
11.046, 9.012, 1.759, -1.447, -0.462, 0.020, 11.461, 24.660
11.227, 9.046, 1.724, -1.744, -0.452, 0.020, 11.298, 24.740
11.408, 9.080, 1.683, -2.078, -0.441, 0.020, 11.134, 24.818
11.591, 9.113, 1.634, -2.446, -0.430, 0.020, 10.969, 24.895
11.774, 9.144, 1.577, -2.848, -0.418, 0.020, 10.802, 24.971
11.957, 9.174, 1.511, -3.282, -0.406, 0.020, 10.634, 25.044
12.141, 9.203, 1.436, -3.742, -0.393, 0.020, 10.465, 25.116
12.326, 9.230, 1.352, -4.225, -0.379, 0.020, 10.294, 25.185
12.511, 9.255, 1.257, -4.723, -0.365, 0.020, 10.121, 25.252
12.696, 9.278, 1.153, -5.230, -0.351, 0.020, 9.947, 25.317
12.882, 9.299, 1.038, -5.735, -0.336, 0.020, 9.772, 25.380
13.069, 9.317, 0.913, -6.231, -0.321, 0.020, 9.596, 25.440
13.255, 9.333, 0.779, -6.705, -0.306, 0.020, 9.418, 25.498
13.442, 9.346, 0.636, -7.149, -0.291, 0.020, 9.240, 25.553
13.629, 9.355, 0.485, -7.552, -0.275, 0.020, 9.060, 25.605
13.813, 9.186, -8.486, -448.560, -0.259, 0.020, 8.883, 25.654
13.993, 9.013, -8.655, -8.430, -0.244, 0.020, 8.708, 25.698
14.170, 8.836, -8.810, -7.744, -0.229, 0.020, 8.537, 25.740
14.343, 8.657, -8.950, -7.011, -0.215, 0.020, 8.368, 25.778
14.513, 8.476, -9.075, -6.247, -0.200, 0.020, 8.202, 25.813
14.679, 8.292, -9.184, -5.468, -0.186, 0.020, 8.039, 25.845
14.841, 8.107, -9.278, -4.689, -0.173, 0.020, 7.879, 25.874
14.999, 7.920, -9.356, -3.924, -0.160, 0.020, 7.723, 25.900
15.154, 7.731, -9.420, -3.182, -0.148, 0.020, 7.570, 25.924
15.305, 7.542, -9.469, -2.475, -0.136, 0.020, 7.421, 25.945
15.452, 7.352, -9.506, -1.809, -0.125, 0.020, 7.275, 25.964
15.595, 7.161, -9.529, -1.189, -0.114, 0.020, 7.133, 25.981
15.734, 6.970, -9.542, -0.618, -0.104, 0.020, 6.995, 25.997
15.870, 6.779, -9.544, -0.098, -0.095, 0.020, 6.860, 26.010
16.002, 6.589, -9.536, 0.371, -0.086, 0.020, 6.728, 26.022
16.130, 6.398, -9.521, 0.791, -0.077, 0.020, 6.601, 26.032
16.254, 6.208, -9.497, 1.162, -0.069, 0.020, 6.477, 26.041
16.374, 6.019, -9.467, 1.489, -0.062, 0.020, 6.357, 26.049
16.491, 5.830, -9.432, 1.773, -0.055, 0.020, 6.241, 26.056
16.604, 5.642, -9.392, 2.019, -0.049, 0.020, 6.128, 26.062
16.713, 5.455, -9.347, 2.229, -0.043, 0.020, 6.019, 26.067
16.818, 5.270, -9.299, 2.407, -0.038, 0.020, 5.914, 26.071
16.920, 5.085, -9.248, 2.555, -0.033, 0.020, 5.812, 26.075
17.018, 4.901, -9.194, 2.677, -0.029, 0.020, 5.714, 26.078
17.112, 4.718, -9.139, 2.776, -0.025, 0.020, 5.620, 26.081
17.203, 4.536, -9.082, 2.853, -0.021, 0.020, 5.529, 26.083
17.290, 4.356, -9.023, 2.911, -0.018, 0.020, 5.442, 26.084
17.374, 4.177, -8.964, 2.951, -0.015, 0.020, 5.358, 26.086
17.453, 3.998, -8.905, 2.975, -0.013, 0.020, 5.278, 26.087
17.530, 3.822, -8.845, 2.985, -0.010, 0.020, 5.202, 26.088
17.603, 3.646, -8.786, 2.980, -0.008, 0.020, 5.129, 26.088
17.672, 3.471, -8.726, 2.962, -0.007, 0.020, 5.060, 26.089
17.738, 3.298, -8.668, 2.932, -0.005, 0.020, 4.994, 26.089
17.801, 3.126, -8.610, 2.890, -0.004, 0.020, 4.931, 26.090
17.860, 2.955, -8.553, 2.837, -0.003, 0.020, 4.872, 26.090
17.916, 2.785, -8.498, 2.772, -0.002, 0.020, 4.816, 26.090
17.968, 2.616, -8.444, 2.695, -0.002, 0.020, 4.764, 26.090
18.017, 2.448, -8.392, 2.608, -0.001, 0.020, 4.715, 26.090
18.062, 2.281, -8.342, 2.510, -0.001, 0.020, 4.669, 26.090
18.105, 2.115, -8.293, 2.402, -0.000, 0.020, 4.627, 26.090
18.144, 1.950, -8.248, 2.283, -0.000, 0.020, 4.588, 26.090
18.179, 1.786, -8.205, 2.154, -0.000, 0.020, 4.552, 26.090
18.212, 1.623, -8.164, 2.016, -0.000, 0.020, 4.520, 26.090
18.232, 1.000, -31.170, -1150.295, -0.000, 0.020, 4.500, 26.090
18.232, 0.000, 0.000, 2498.823, -0.000, 0.020, 4.500, 26.090
18.232, 0.000, 0.000, 0.000, -0.000, 0.020, 4.500, 26.090
18.232, 0.000, 0.000, 0.000, -0.000, 0.020, 4.500, 26.090
18.232, 0.000, 0.000, 0.000, -0.000, 0.020, 4.500, 26.090
18.232, 0.000, 0.000, 0.000, -0.000, 0.020, 4.500, 26.090
18.232, 0.000, 0.000, 0.000, -0.000, 0.020, 4.500, 26.090
18.232, 0.000, 0.000, 0.000, -0.000, 0.020, 4.500, 26.090
18.232, 0.000, 0.000, 0.000, -0.000, 0.020, 4.500, 26.090
18.232, 0.000, 0.000, 0.000, -0.000, 0.020, 4.500, 26.090
18.232, 0.000, 0.000, 0.000, -0.000, 0.020, 4.500, 26.090
18.232, 0.000, 0.000, 0.000, -0.000, 0.020, 4.500, 26.090
