position,velocity,acceleration,jerk,heading,dt,x,y
0.000, -0.000, 0.000, 0.000, -1.588, 0.020, 26.590, 17.981
-0.003, -0.160, -7.999, -399.926, -1.588, 0.020, 24.410, 18.022
-0.010, -0.320, -7.990, 0.445, -1.588, 0.020, 24.410, 18.029
-0.019, -0.479, -7.972, 0.884, -1.588, 0.020, 24.410, 18.038
-0.032, -0.638, -7.946, 1.311, -1.588, 0.020, 24.411, 18.051
-0.048, -0.796, -7.911, 1.720, -1.588, 0.020, 24.411, 18.067
-0.067, -0.954, -7.869, 2.106, -1.588, 0.020, 24.411, 18.086
-0.089, -1.110, -7.820, 2.461, -1.588, 0.020, 24.412, 18.108
-0.114, -1.265, -7.764, 2.783, -1.588, 0.020, 24.412, 18.133
-0.143, -1.419, -7.703, 3.065, -1.587, 0.020, 24.412, 18.162
-0.174, -1.572, -7.637, 3.302, -1.587, 0.020, 24.413, 18.193
-0.209, -1.724, -7.567, 3.490, -1.586, 0.020, 24.413, 18.228
-0.246, -1.873, -7.495, 3.626, -1.585, 0.020, 24.414, 18.265
-0.287, -2.022, -7.421, 3.705, -1.584, 0.020, 24.415, 18.306
-0.330, -2.169, -7.346, 3.723, -1.583, 0.020, 24.415, 18.349
-0.376, -2.314, -7.273, 3.679, -1.581, 0.020, 24.416, 18.395
-0.425, -2.458, -7.201, 3.569, -1.579, 0.020, 24.416, 18.444
-0.478, -2.601, -7.133, 3.390, -1.577, 0.020, 24.416, 18.496
-0.532, -2.742, -7.071, 3.140, -1.575, 0.020, 24.417, 18.551
-0.590, -2.883, -7.014, 2.818, -1.572, 0.020, 24.417, 18.609
-0.650, -3.022, -6.966, 2.422, -1.568, 0.020, 24.417, 18.669
-0.714, -3.160, -6.927, 1.951, -1.565, 0.020, 24.417, 18.733
-0.780, -3.298, -6.899, 1.406, -1.561, 0.020, 24.416, 18.799
-0.848, -3.436, -6.883, 0.786, -1.556, 0.020, 24.415, 18.867
-0.920, -3.574, -6.881, 0.093, -1.551, 0.020, 24.414, 18.939
-0.994, -3.712, -6.894, -0.670, -1.546, 0.020, 24.412, 19.013
-1.068, -3.702, 0.471, 368.290, -1.541, 0.020, 24.410, 19.087
-1.142, -3.695, 0.382, -4.477, -1.535, 0.020, 24.408, 19.161
-1.216, -3.689, 0.295, -4.355, -1.529, 0.020, 24.405, 19.235
-1.289, -3.684, 0.210, -4.229, -1.524, 0.020, 24.402, 19.308
-1.363, -3.682, 0.128, -4.099, -1.518, 0.020, 24.398, 19.382
-1.437, -3.681, 0.049, -3.964, -1.512, 0.020, 24.394, 19.455
-1.510, -3.681, -0.028, -3.824, -1.506, 0.020, 24.389, 19.529
-1.584, -3.683, -0.101, -3.680, -1.500, 0.020, 24.384, 19.602
-1.658, -3.687, -0.172, -3.532, -1.494, 0.020, 24.379, 19.676
-1.732, -3.692, -0.239, -3.379, -1.489, 0.020, 24.373, 19.749
-1.806, -3.698, -0.304, -3.223, -1.483, 0.020, 24.367, 19.823
-1.880, -3.705, -0.365, -3.064, -1.478, 0.020, 24.360, 19.897
-1.954, -3.714, -0.423, -2.903, -1.473, 0.020, 24.353, 19.971
-2.028, -3.723, -0.478, -2.740, -1.468, 0.020, 24.346, 20.045
-2.103, -3.734, -0.530, -2.576, -1.463, 0.020, 24.338, 20.119
-2.178, -3.745, -0.578, -2.413, -1.458, 0.020, 24.330, 20.194
-2.253, -3.758, -0.623, -2.250, -1.454, 0.020, 24.321, 20.268
-2.329, -3.771, -0.665, -2.087, -1.449, 0.020, 24.312, 20.343
-2.404, -3.785, -0.703, -1.927, -1.445, 0.020, 24.303, 20.418
-2.480, -3.800, -0.738, -1.768, -1.442, 0.020, 24.293, 20.494
-2.557, -3.815, -0.771, -1.612, -1.438, 0.020, 24.283, 20.569
-2.633, -3.831, -0.800, -1.458, -1.435, 0.020, 24.273, 20.645
-2.710, -3.848, -0.826, -1.308, -1.432, 0.020, 24.262, 20.721
-2.787, -3.865, -0.849, -1.160, -1.430, 0.020, 24.251, 20.798
-2.865, -3.882, -0.869, -1.014, -1.428, 0.020, 24.240, 20.875
-2.943, -3.900, -0.887, -0.872, -1.426, 0.020, 24.229, 20.952
-3.021, -3.918, -0.902, -0.732, -1.424, 0.020, 24.218, 21.030
-3.100, -3.936, -0.913, -0.594, -1.423, 0.020, 24.206, 21.107
-3.179, -3.955, -0.923, -0.458, -1.422, 0.020, 24.195, 21.186
-3.259, -3.973, -0.929, -0.324, -1.422, 0.020, 24.183, 21.264
-3.339, -3.992, -0.933, -0.190, -1.422, 0.020, 24.171, 21.343
-3.419, -4.011, -0.934, -0.058, -1.422, 0.020, 24.159, 21.423
-3.499, -4.029, -0.933, 0.075, -1.423, 0.020, 24.147, 21.502
-3.580, -4.048, -0.928, 0.207, -1.423, 0.020, 24.135, 21.582
-3.662, -4.066, -0.922, 0.341, -1.425, 0.020, 24.123, 21.663
-3.743, -4.084, -0.912, 0.475, -1.426, 0.020, 24.112, 21.744
-3.825, -4.102, -0.900, 0.612, -1.428, 0.020, 24.100, 21.825
-3.908, -4.120, -0.885, 0.750, -1.430, 0.020, 24.088, 21.906
-3.990, -4.137, -0.867, 0.890, -1.433, 0.020, 24.077, 21.988
-4.074, -4.154, -0.846, 1.033, -1.436, 0.020, 24.065, 22.071
-4.157, -4.171, -0.823, 1.179, -1.439, 0.020, 24.054, 22.153
-4.241, -4.187, -0.796, 1.327, -1.442, 0.020, 24.043, 22.236
-4.325, -4.202, -0.767, 1.478, -1.446, 0.020, 24.033, 22.320
-4.409, -4.217, -0.734, 1.632, -1.450, 0.020, 24.022, 22.403
-4.494, -4.231, -0.698, 1.789, -1.454, 0.020, 24.012, 22.487
-4.579, -4.244, -0.659, 1.947, -1.459, 0.020, 24.003, 22.572
-4.664, -4.256, -0.617, 2.108, -1.463, 0.020, 23.993, 22.656
-4.749, -4.268, -0.572, 2.270, -1.468, 0.020, 23.984, 22.741
-4.835, -4.278, -0.523, 2.434, -1.473, 0.020, 23.976, 22.826
-4.920, -4.288, -0.471, 2.597, -1.479, 0.020, 23.968, 22.912
-5.006, -4.296, -0.416, 2.761, -1.484, 0.020, 23.960, 22.997
-5.092, -4.303, -0.357, 2.923, -1.490, 0.020, 23.953, 23.083
-5.179, -4.309, -0.296, 3.084, -1.495, 0.020, 23.946, 23.169
-5.265, -4.314, -0.231, 3.243, -1.501, 0.020, 23.940, 23.255
-5.351, -4.317, -0.163, 3.398, -1.507, 0.020, 23.934, 23.341
-5.438, -4.319, -0.092, 3.551, -1.513, 0.020, 23.929, 23.427
-5.524, -4.319, -0.018, 3.699, -1.518, 0.020, 23.924, 23.514
-5.610, -4.318, 0.059, 3.842, -1.524, 0.020, 23.920, 23.600
-5.697, -4.315, 0.139, 3.981, -1.530, 0.020, 23.916, 23.686
-5.783, -4.311, 0.221, 4.116, -1.536, 0.020, 23.913, 23.772
-5.869, -4.305, 0.306, 4.245, -1.541, 0.020, 23.910, 23.858
-5.955, -4.297, 0.393, 4.370, -1.547, 0.020, 23.908, 23.944
-6.041, -4.287, 0.483, 4.492, -1.552, 0.020, 23.906, 24.030
-6.123, -4.105, 9.114, 431.552, -1.557, 0.020, 23.904, 24.112
-6.201, -3.922, 9.126, 0.614, -1.561, 0.020, 23.904, 24.190
-6.276, -3.740, 9.123, -0.149, -1.565, 0.020, 23.903, 24.265
-6.347, -3.558, 9.107, -0.842, -1.569, 0.020, 23.903, 24.336
-6.415, -3.376, 9.077, -1.461, -1.572, 0.020, 23.903, 24.404
-6.478, -3.195, 9.037, -2.006, -1.575, 0.020, 23.903, 24.468
-6.539, -3.016, 8.988, -2.476, -1.578, 0.020, 23.903, 24.528
-6.596, -2.837, 8.930, -2.870, -1.580, 0.020, 23.904, 24.585
-6.649, -2.660, 8.866, -3.191, -1.582, 0.020, 23.904, 24.638
-6.698, -2.484, 8.798, -3.439, -1.583, 0.020, 23.905, 24.688
-6.745, -2.309, 8.725, -3.616, -1.584, 0.020, 23.905, 24.734
-6.787, -2.136, 8.651, -3.724, -1.585, 0.020, 23.906, 24.777
-6.827, -1.965, 8.576, -3.767, -1.586, 0.020, 23.907, 24.816
-6.862, -1.795, 8.501, -3.745, -1.587, 0.020, 23.907, 24.852
-6.895, -1.626, 8.427, -3.664, -1.587, 0.020, 23.908, 24.884
-6.924, -1.459, 8.357, -3.526, -1.588, 0.020, 23.908, 24.913
-6.950, -1.293, 8.290, -3.334, -1.588, 0.020, 23.909, 24.939
-6.973, -1.129, 8.228, -3.094, -1.588, 0.020, 23.909, 24.962
-6.992, -0.965, 8.172, -2.809, -1.588, 0.020, 23.909, 24.981
-7.008, -0.803, 8.122, -2.484, -1.588, 0.020, 23.910, 24.997
-7.021, -0.641, 8.080, -2.125, -1.588, 0.020, 23.910, 25.010
-9.208, -0.320, 5435.036, 542700.942, 1.553, 0.020, 26.090, 24.974
-9.208, 0.000, 15.997, -270952.224, 1.553, 0.020, 23.910, 25.009
-9.208, 0.000, 0.000, -799.865, 1.553, 0.020, 23.910, 25.009
-9.208, 0.000, 0.000, 0.000, 1.553, 0.020, 23.910, 25.009
-9.208, 0.000, 0.000, 0.000, 1.553, 0.020, 23.910, 25.009
-9.208, 0.000, 0.000, 0.000, 1.553, 0.020, 23.910, 25.009
-9.208, 0.000, 0.000, 0.000, 1.553, 0.020, 23.910, 25.009
-9.204, 0.160, 7.996, 399.793, 1.553, 0.020, 23.910, 25.006
-9.198, 0.320, 7.993, -0.167, 1.553, 0.020, 23.910, 24.999
-9.188, 0.479, 7.986, -0.333, 1.553, 0.020, 23.909, 24.990
-9.176, 0.639, 7.976, -0.498, 1.553, 0.020, 23.909, 24.977
-9.160, 0.798, 7.963, -0.660, 1.553, 0.020, 23.909, 24.961
-9.141, 0.957, 7.946, -0.821, 1.553, 0.020, 23.909, 24.942
-9.118, 1.116, 7.927, -0.978, 1.553, 0.020, 23.908, 24.919
-9.093, 1.274, 7.904, -1.133, 1.553, 0.020, 23.908, 24.894
-9.064, 1.431, 7.878, -1.285, 1.553, 0.020, 23.907, 24.865
-9.032, 1.588, 7.850, -1.434, 1.553, 0.020, 23.907, 24.834
-8.997, 1.745, 7.818, -1.581, 1.552, 0.020, 23.906, 24.799
-8.959, 1.900, 7.784, -1.726, 1.552, 0.020, 23.905, 24.761
-8.918, 2.055, 7.746, -1.872, 1.552, 0.020, 23.905, 24.720
-8.874, 2.209, 7.706, -2.018, 1.551, 0.020, 23.904, 24.675
-8.827, 2.363, 7.662, -2.167, 1.550, 0.020, 23.903, 24.628
-8.777, 2.515, 7.616, -2.320, 1.549, 0.020, 23.902, 24.578
-8.723, 2.666, 7.566, -2.480, 1.549, 0.020, 23.901, 24.525
-8.667, 2.817, 7.513, -2.649, 1.547, 0.020, 23.899, 24.468
-8.608, 2.966, 7.457, -2.830, 1.546, 0.020, 23.898, 24.409
-8.545, 3.114, 7.396, -3.027, 1.544, 0.020, 23.896, 24.347
-8.480, 3.260, 7.331, -3.244, 1.543, 0.020, 23.894, 24.281
-8.412, 3.406, 7.262, -3.485, 1.540, 0.020, 23.892, 24.213
-8.341, 3.549, 7.187, -3.755, 1.538, 0.020, 23.890, 24.142
-8.267, 3.691, 7.105, -4.061, 1.535, 0.020, 23.888, 24.069
-8.191, 3.832, 7.017, -4.409, 1.532, 0.020, 23.885, 23.992
-8.114, 3.818, -0.700, -385.842, 1.529, 0.020, 23.882, 23.916
-8.038, 3.803, -0.715, -0.751, 1.525, 0.020, 23.878, 23.840
-7.962, 3.789, -0.732, -0.859, 1.521, 0.020, 23.875, 23.764
-7.887, 3.774, -0.751, -0.972, 1.517, 0.020, 23.871, 23.689
-7.812, 3.758, -0.773, -1.088, 1.513, 0.020, 23.867, 23.614
-7.737, 3.742, -0.797, -1.210, 1.508, 0.020, 23.862, 23.539
-7.662, 3.726, -0.824, -1.337, 1.503, 0.020, 23.857, 23.465
-7.588, 3.709, -0.853, -1.471, 1.498, 0.020, 23.852, 23.391
-7.514, 3.691, -0.886, -1.612, 1.492, 0.020, 23.847, 23.317
-7.441, 3.673, -0.921, -1.762, 1.486, 0.020, 23.841, 23.244
-7.368, 3.654, -0.959, -1.920, 1.480, 0.020, 23.834, 23.171
-7.295, 3.633, -1.001, -2.088, 1.473, 0.020, 23.827, 23.099
-7.223, 3.613, -1.046, -2.267, 1.466, 0.020, 23.820, 23.027
-7.151, 3.591, -1.095, -2.457, 1.458, 0.020, 23.812, 22.955
-7.080, 3.568, -1.149, -2.660, 1.450, 0.020, 23.804, 22.884
-7.009, 3.544, -1.206, -2.875, 1.442, 0.020, 23.795, 22.814
-6.939, 3.518, -1.268, -3.105, 1.433, 0.020, 23.786, 22.744
-6.869, 3.491, -1.335, -3.348, 1.424, 0.020, 23.776, 22.675
-6.799, 3.463, -1.407, -3.606, 1.414, 0.020, 23.766, 22.607
-6.731, 3.434, -1.485, -3.879, 1.404, 0.020, 23.754, 22.539
-6.663, 3.402, -1.568, -4.166, 1.393, 0.020, 23.743, 22.472
-6.595, 3.369, -1.658, -4.467, 1.381, 0.020, 23.730, 22.406
-6.529, 3.334, -1.753, -4.780, 1.369, 0.020, 23.718, 22.340
-6.463, 3.297, -1.855, -5.104, 1.356, 0.020, 23.704, 22.276
-6.398, 3.258, -1.964, -5.433, 1.342, 0.020, 23.690, 22.212
-6.333, 3.216, -2.079, -5.765, 1.328, 0.020, 23.675, 22.150
-6.270, 3.172, -2.201, -6.092, 1.313, 0.020, 23.659, 22.088
-6.207, 3.125, -2.329, -6.404, 1.297, 0.020, 23.642, 22.028
-6.146, 3.076, -2.463, -6.692, 1.280, 0.020, 23.625, 21.969
-6.085, 3.024, -2.602, -6.938, 1.262, 0.020, 23.607, 21.911
-6.026, 2.969, -2.744, -7.126, 1.243, 0.020, 23.589, 21.855
-5.968, 2.912, -2.889, -7.230, 1.223, 0.020, 23.570, 21.800
-5.911, 2.851, -3.033, -7.222, 1.202, 0.020, 23.550, 21.746
-5.855, 2.787, -3.175, -7.069, 1.180, 0.020, 23.529, 21.695
-5.800, 2.721, -3.309, -6.730, 1.156, 0.020, 23.508, 21.645
-5.747, 2.653, -3.433, -6.162, 1.132, 0.020, 23.486, 21.596
-5.696, 2.582, -3.539, -5.315, 1.106, 0.020, 23.463, 21.550
-5.646, 2.509, -3.622, -4.141, 1.078, 0.020, 23.440, 21.505
-5.597, 2.436, -3.674, -2.593, 1.050, 0.020, 23.416, 21.463
-5.550, 2.362, -3.686, -0.632, 1.019, 0.020, 23.392, 21.422
-5.504, 2.289, -3.651, 1.765, 0.988, 0.020, 23.368, 21.383
-5.460, 2.218, -3.559, 4.597, 0.955, 0.020, 23.343, 21.347
-5.417, 2.150, -3.402, 7.830, 0.921, 0.020, 23.317, 21.312
-5.375, 2.086, -3.175, 11.389, 0.886, 0.020, 23.291, 21.279
-5.334, 2.029, -2.871, 15.154, 0.850, 0.020, 23.265, 21.248
-5.295, 1.979, -2.492, 18.956, 0.813, 0.020, 23.238, 21.219
-5.256, 1.938, -2.041, 22.591, 0.775, 0.020, 23.211, 21.191
-5.218, 1.908, -1.524, 25.827, 0.737, 0.020, 23.184, 21.165
-5.180, 1.889, -0.955, 28.436, 0.698, 0.020, 23.155, 21.140
-5.142, 1.882, -0.351, 30.215, 0.659, 0.020, 23.126, 21.117
-5.105, 1.887, 0.269, 31.018, 0.621, 0.020, 23.096, 21.094
-5.066, 1.905, 0.885, 30.777, 0.582, 0.020, 23.064, 21.073
-5.028, 1.934, 1.475, 29.509, 0.544, 0.020, 23.031, 21.052
-4.988, 1.975, 2.022, 27.320, 0.507, 0.020, 22.997, 21.032
-4.948, 2.025, 2.509, 24.383, 0.471, 0.020, 22.961, 21.013
-4.906, 2.083, 2.927, 20.916, 0.436, 0.020, 22.924, 20.995
-4.863, 2.149, 3.271, 17.153, 0.402, 0.020, 22.885, 20.977
-4.819, 2.220, 3.537, 13.317, 0.369, 0.020, 22.844, 20.961
-4.773, 2.294, 3.729, 9.600, 0.338, 0.020, 22.801, 20.945
-4.725, 2.371, 3.852, 6.152, 0.308, 0.020, 22.756, 20.930
-4.676, 2.449, 3.913, 3.072, 0.279, 0.020, 22.709, 20.916
-4.626, 2.528, 3.922, 0.418, 0.252, 0.020, 22.660, 20.902
-4.574, 2.606, 3.886, -1.792, 0.227, 0.020, 22.609, 20.890
-4.520, 2.682, 3.815, -3.569, 0.203, 0.020, 22.557, 20.879
-4.465, 2.756, 3.716, -4.944, 0.180, 0.020, 22.503, 20.868
-4.408, 2.828, 3.596, -5.961, 0.158, 0.020, 22.447, 20.859
-4.351, 2.897, 3.463, -6.669, 0.138, 0.020, 22.390, 20.850
-4.291, 2.964, 3.321, -7.119, 0.119, 0.020, 22.331, 20.842
-4.231, 3.027, 3.174, -7.356, 0.101, 0.020, 22.271, 20.836
-4.169, 3.088, 3.025, -7.426, 0.085, 0.020, 22.209, 20.830
-4.106, 3.145, 2.878, -7.365, 0.069, 0.020, 22.147, 20.825
-4.042, 3.200, 2.734, -7.205, 0.054, 0.020, 22.083, 20.821
-3.977, 3.252, 2.594, -6.974, 0.041, 0.020, 22.018, 20.818
-3.911, 3.301, 2.460, -6.693, 0.028, 0.020, 21.952, 20.816
-3.844, 3.348, 2.333, -6.379, 0.016, 0.020, 21.885, 20.815
-3.776, 3.392, 2.212, -6.047, 0.005, 0.020, 21.817, 20.814
-3.707, 3.434, 2.098, -5.707, -0.006, 0.020, 21.748, 20.814
-3.638, 3.474, 1.990, -5.366, -0.015, 0.020, 21.679, 20.815
-3.568, 3.512, 1.890, -5.031, -0.024, 0.020, 21.609, 20.816
-3.497, 3.547, 1.796, -4.706, -0.033, 0.020, 21.538, 20.818
-3.425, 3.582, 1.708, -4.394, -0.040, 0.020, 21.466, 20.821
-3.353, 3.614, 1.626, -4.096, -0.047, 0.020, 21.394, 20.824
-3.280, 3.645, 1.549, -3.815, -0.054, 0.020, 21.321, 20.828
-3.207, 3.675, 1.478, -3.551, -0.060, 0.020, 21.248, 20.832
-3.132, 3.703, 1.412, -3.303, -0.065, 0.020, 21.174, 20.836
-3.058, 3.730, 1.351, -3.072, -0.070, 0.020, 21.099, 20.842
-2.983, 3.756, 1.294, -2.858, -0.075, 0.020, 21.024, 20.847
-2.907, 3.781, 1.241, -2.660, -0.079, 0.020, 20.949, 20.853
-2.831, 3.804, 1.191, -2.478, -0.082, 0.020, 20.873, 20.859
-2.754, 3.827, 1.145, -2.310, -0.086, 0.020, 20.797, 20.865
-2.677, 3.849, 1.102, -2.157, -0.088, 0.020, 20.720, 20.872
-2.600, 3.871, 1.061, -2.018, -0.091, 0.020, 20.643, 20.879
-2.522, 3.891, 1.023, -1.892, -0.093, 0.020, 20.566, 20.886
-2.444, 3.911, 0.988, -1.779, -0.094, 0.020, 20.488, 20.893
-2.365, 3.930, 0.954, -1.678, -0.096, 0.020, 20.409, 20.901
-2.286, 3.948, 0.923, -1.590, -0.097, 0.020, 20.331, 20.908
-2.207, 3.966, 0.892, -1.513, -0.097, 0.020, 20.252, 20.916
-2.127, 3.984, 0.863, -1.447, -0.098, 0.020, 20.173, 20.924
-2.047, 4.000, 0.835, -1.392, -0.098, 0.020, 20.093, 20.932
-1.967, 4.016, 0.808, -1.349, -0.097, 0.020, 20.013, 20.939
-1.887, 4.032, 0.782, -1.317, -0.097, 0.020, 19.933, 20.947
-1.806, 4.047, 0.756, -1.295, -0.096, 0.020, 19.852, 20.955
-1.724, 4.062, 0.731, -1.284, -0.095, 0.020, 19.771, 20.963
-1.643, 4.076, 0.705, -1.285, -0.093, 0.020, 19.690, 20.970
-1.561, 4.089, 0.679, -1.297, -0.092, 0.020, 19.609, 20.978
-1.479, 4.102, 0.653, -1.319, -0.090, 0.020, 19.527, 20.985
-1.397, 4.115, 0.625, -1.354, -0.088, 0.020, 19.445, 20.993
-1.314, 4.127, 0.597, -1.400, -0.085, 0.020, 19.363, 21.000
-1.231, 4.138, 0.568, -1.458, -0.083, 0.020, 19.280, 21.007
-1.148, 4.149, 0.538, -1.528, -0.080, 0.020, 19.198, 21.014
-1.065, 4.159, 0.506, -1.610, -0.077, 0.020, 19.115, 21.020
-0.982, 4.169, 0.472, -1.704, -0.074, 0.020, 19.032, 21.026
-0.898, 4.177, 0.435, -1.811, -0.071, 0.020, 18.948, 21.032
-0.815, 4.185, 0.397, -1.930, -0.067, 0.020, 18.865, 21.038
-0.731, 4.192, 0.355, -2.061, -0.064, 0.020, 18.781, 21.044
-0.647, 4.199, 0.311, -2.204, -0.060, 0.020, 18.697, 21.049
-0.563, 4.204, 0.264, -2.359, -0.056, 0.020, 18.613, 21.054
-0.479, 4.208, 0.214, -2.525, -0.053, 0.020, 18.529, 21.058
-0.394, 4.211, 0.160, -2.702, -0.049, 0.020, 18.445, 21.063
-0.310, 4.213, 0.102, -2.888, -0.045, 0.020, 18.361, 21.067
-0.226, 4.214, 0.040, -3.082, -0.041, 0.020, 18.277, 21.070
-0.141, 4.214, -0.025, -3.283, -0.037, 0.020, 18.193, 21.073
-0.057, 4.212, -0.095, -3.489, -0.033, 0.020, 18.108, 21.076
0.027, 4.208, -0.169, -3.698, -0.029, 0.020, 18.024, 21.079
0.111, 4.203, -0.247, -3.907, -0.026, 0.020, 17.940, 21.081
0.195, 4.197, -0.330, -4.115, -0.022, 0.020, 17.856, 21.083
0.279, 4.189, -0.416, -4.317, -0.018, 0.020, 17.773, 21.085
0.362, 4.178, -0.506, -4.511, -0.015, 0.020, 17.689, 21.086
0.446, 4.166, -0.600, -4.692, -0.012, 0.020, 17.606, 21.088
0.529, 4.152, -0.697, -4.857, -0.009, 0.020, 17.523, 21.088
0.611, 4.137, -0.797, -5.002, -0.007, 0.020, 17.440, 21.089
0.694, 4.119, -0.900, -5.121, -0.005, 0.020, 17.358, 21.090
0.776, 4.098, -1.004, -5.211, -0.003, 0.020, 17.276, 21.090
0.857, 4.076, -1.109, -5.265, -0.001, 0.020, 17.194, 21.090
0.938, 4.052, -1.215, -5.279, -0.001, 0.020, 17.113, 21.090
1.019, 4.026, 201.280, 20194.015, -0.000, 0.020, 17.033, 21.090
1.099, 3.998, -1.372, -10132.601, -0.000, 0.020, 16.953, 21.090
1.178, 3.974, -1.200, 8.564, -0.001, 0.020, 16.873, 21.090
1.257, 3.951, -1.146, 2.695, -0.001, 0.020, 16.794, 21.090
1.336, 3.929, -1.115, 1.597, -0.003, 0.020, 16.715, 21.090
1.414, 3.907, -1.084, 1.515, -0.004, 0.020, 16.637, 21.091
1.492, 3.886, -1.055, 1.441, -0.007, 0.020, 16.560, 21.091
1.569, 3.866, -1.028, 1.376, -0.009, 0.020, 16.482, 21.092
1.646, 3.846, -1.002, 1.318, -0.012, 0.020, 16.405, 21.093
1.722, 3.826, -0.976, 1.268, -0.015, 0.020, 16.329, 21.094
1.799, 3.807, -0.952, 1.225, -0.019, 0.020, 16.253, 21.095
1.874, 3.788, -0.928, 1.190, -0.022, 0.020, 16.177, 21.096
1.950, 3.770, -0.905, 1.161, -0.027, 0.020, 16.102, 21.098
2.025, 3.753, -0.882, 1.138, -0.031, 0.020, 16.027, 21.100
2.100, 3.736, -0.859, 1.122, -0.036, 0.020, 15.952, 21.103
2.174, 3.719, -0.837, 1.112, -0.041, 0.020, 15.878, 21.106
2.248, 3.702, -0.815, 1.108, -0.047, 0.020, 15.804, 21.109
2.322, 3.687, -0.793, 1.108, -0.052, 0.020, 15.730, 21.113
2.395, 3.671, -0.771, 1.115, -0.058, 0.020, 15.657, 21.117
2.468, 3.656, -0.748, 1.126, -0.065, 0.020, 15.584, 21.121
2.541, 3.642, -0.725, 1.141, -0.071, 0.020, 15.511, 21.126
2.614, 3.628, -0.702, 1.160, -0.078, 0.020, 15.439, 21.132
2.686, 3.614, -0.678, 1.184, -0.085, 0.020, 15.367, 21.138
2.758, 3.601, -0.654, 1.210, -0.093, 0.020, 15.295, 21.144
2.830, 3.588, -0.629, 1.240, -0.100, 0.020, 15.223, 21.151
2.901, 3.576, -0.604, 1.272, -0.108, 0.020, 15.152, 21.158
2.973, 3.565, -0.578, 1.307, -0.116, 0.020, 15.081, 21.166
3.044, 3.554, -0.551, 1.342, -0.124, 0.020, 15.011, 21.175
3.114, 3.543, -0.523, 1.379, -0.132, 0.020, 14.941, 21.184
3.185, 3.533, -0.495, 1.417, -0.141, 0.020, 14.871, 21.193
3.256, 3.524, -0.466, 1.454, -0.150, 0.020, 14.801, 21.204
3.326, 3.515, -0.436, 1.491, -0.159, 0.020, 14.731, 21.214
3.396, 3.507, -0.406, 1.527, -0.168, 0.020, 14.662, 21.226
3.466, 3.500, -0.374, 1.561, -0.177, 0.020, 14.593, 21.238
3.536, 3.493, -0.343, 1.593, -0.186, 0.020, 14.524, 21.250
3.606, 3.487, -0.310, 1.623, -0.196, 0.020, 14.456, 21.264
3.675, 3.481, -0.277, 1.649, -0.205, 0.020, 14.388, 21.277
3.745, 3.476, -0.244, 1.672, -0.215, 0.020, 14.320, 21.292
3.814, 3.472, -0.210, 1.692, -0.224, 0.020, 14.252, 21.307
3.884, 3.469, -0.176, 1.706, -0.234, 0.020, 14.184, 21.323
3.953, 3.466, -0.141, 1.717, -0.244, 0.020, 14.117, 21.339
4.022, 3.464, -0.107, 1.722, -0.254, 0.020, 14.050, 21.356
4.091, 3.462, -0.072, 1.722, -0.264, 0.020, 13.983, 21.374
4.161, 3.461, -0.038, 1.717, -0.273, 0.020, 13.916, 21.392
4.230, 3.461, -0.004, 1.707, -0.283, 0.020, 13.850, 21.411
4.299, 3.462, 0.030, 1.692, -0.293, 0.020, 13.783, 21.431
4.368, 3.463, 0.063, 1.671, -0.303, 0.020, 13.717, 21.451
4.438, 3.465, 0.096, 1.645, -0.313, 0.020, 13.651, 21.472
4.507, 3.468, 0.128, 1.615, -0.323, 0.020, 13.585, 21.494
4.577, 3.471, 0.160, 1.579, -0.332, 0.020, 13.519, 21.516
4.646, 3.475, 0.191, 1.540, -0.342, 0.020, 13.454, 21.539
4.716, 3.479, 0.221, 1.496, -0.352, 0.020, 13.388, 21.563
4.785, 3.484, 0.250, 1.448, -0.361, 0.020, 13.323, 21.587
4.855, 3.490, 0.278, 1.398, -0.370, 0.020, 13.258, 21.612
