position,velocity,acceleration,jerk,heading,dt,x,y
0.000, -0.000, 0.000, 0.000, 1.553, 0.020, 25.500, 18.000
0.003, -0.160, -8.000, 0.000, 1.553, 0.020, 25.500, 18.003
0.010, -0.320, -8.000, 0.000, 1.553, 0.020, 25.500, 18.010
0.019, -0.480, -8.000, 0.000, 1.553, 0.020, 25.500, 18.019
0.032, -0.640, -8.000, 0.000, 1.553, 0.020, 25.501, 18.032
0.048, -0.800, -8.000, 0.000, 1.553, 0.020, 25.501, 18.048
0.067, -0.960, -8.000, 0.000, 1.554, 0.020, 25.501, 18.067
0.090, -1.120, -8.000, 0.000, 1.554, 0.020, 25.502, 18.090
0.115, -1.280, -8.000, 0.000, 1.554, 0.020, 25.502, 18.115
0.144, -1.440, -8.000, 0.000, 1.554, 0.020, 25.502, 18.144
0.176, -1.600, -8.000, 0.000, 1.555, 0.020, 25.503, 18.176
0.211, -1.760, -8.000, 0.000, 1.556, 0.020, 25.504, 18.211
0.250, -1.920, -8.000, 0.000, 1.556, 0.020, 25.504, 18.250
0.291, -2.080, -8.000, 0.000, 1.558, 0.020, 25.505, 18.291
0.336, -2.240, -8.000, 0.000, 1.559, 0.020, 25.505, 18.336
0.384, -2.400, -8.000, 0.000, 1.560, 0.020, 25.506, 18.384
0.435, -2.560, -8.000, 0.000, 1.562, 0.020, 25.506, 18.435
0.490, -2.720, -8.000, 0.000, 1.564, 0.020, 25.507, 18.490
0.547, -2.880, -8.000, 0.000, 1.567, 0.020, 25.507, 18.547
0.608, -3.040, -8.000, 0.000, 1.570, 0.020, 25.507, 18.608
0.672, -3.200, -8.000, 0.000, 1.573, 0.020, 25.507, 18.672
0.739, -3.360, -8.000, 0.000, 1.577, 0.020, 25.507, 18.739
0.810, -3.520, -8.000, 0.000, 1.581, 0.020, 25.506, 18.810
0.883, -3.680, -8.000, 0.000, 1.585, 0.020, 25.505, 18.883
0.960, -3.840, -8.000, 0.000, 1.590, 0.020, 25.504, 18.960
1.040, -4.000, 0.000, 0.000, 1.595, 0.020, 25.502, 19.040
1.120, -4.000, 0.000, 0.000, 1.601, 0.020, 25.500, 19.120
1.200, -4.000, 0.000, 0.000, 1.607, 0.020, 25.497, 19.200
1.280, -4.000, 0.000, 0.000, 1.612, 0.020, 25.494, 19.280
1.360, -4.000, 0.000, 0.000, 1.618, 0.020, 25.491, 19.360
1.440, -4.000, 0.000, 0.000, 1.624, 0.020, 25.487, 19.440
1.520, -4.000, 0.000, 0.000, 1.630, 0.020, 25.482, 19.519
1.600, -4.000, 0.000, 0.000, 1.636, 0.020, 25.477, 19.599
1.680, -4.000, 0.000, 0.000, 1.641, 0.020, 25.472, 19.679
1.760, -4.000, 0.000, 0.000, 1.647, 0.020, 25.466, 19.759
1.840, -4.000, 0.000, 0.000, 1.653, 0.020, 25.460, 19.839
1.920, -4.000, 0.000, 0.000, 1.658, 0.020, 25.453, 19.918
2.000, -4.000, 0.000, 0.000, 1.664, 0.020, 25.446, 19.998
2.080, -4.000, 0.000, 0.000, 1.669, 0.020, 25.438, 20.078
2.160, -4.000, 0.000, 0.000, 1.674, 0.020, 25.430, 20.157
2.240, -4.000, 0.000, 0.000, 1.679, 0.020, 25.422, 20.237
2.320, -4.000, 0.000, 0.000, 1.684, 0.020, 25.413, 20.316
2.400, -4.000, 0.000, 0.000, 1.688, 0.020, 25.404, 20.396
2.480, -4.000, 0.000, 0.000, 1.692, 0.020, 25.394, 20.475
2.560, -4.000, 0.000, 0.000, 1.696, 0.020, 25.384, 20.555
2.640, -4.000, 0.000, 0.000, 1.700, 0.020, 25.374, 20.634
2.720, -4.000, 0.000, 0.000, 1.703, 0.020, 25.364, 20.713
2.800, -4.000, 0.000, 0.000, 1.706, 0.020, 25.353, 20.793
2.880, -4.000, 0.000, 0.000, 1.709, 0.020, 25.342, 20.872
2.960, -4.000, 0.000, 0.000, 1.712, 0.020, 25.331, 20.951
3.040, -4.000, 0.000, 0.000, 1.714, 0.020, 25.320, 21.030
3.120, -4.000, 0.000, 0.000, 1.716, 0.020, 25.308, 21.109
3.200, -4.000, 0.000, 0.000, 1.717, 0.020, 25.296, 21.189
3.280, -4.000, 0.000, 0.000, 1.718, 0.020, 25.285, 21.268
3.360, -4.000, 0.000, 0.000, 1.719, 0.020, 25.273, 21.347
3.440, -4.000, 0.000, 0.000, 1.720, 0.020, 25.261, 21.426
3.520, -4.000, 0.000, 0.000, 1.720, 0.020, 25.249, 21.505
3.600, -4.000, 0.000, 0.000, 1.720, 0.020, 25.237, 21.584
3.680, -4.000, 0.000, 0.000, 1.719, 0.020, 25.226, 21.663
3.760, -4.000, 0.000, 0.000, 1.718, 0.020, 25.214, 21.742
3.840, -4.000, 0.000, 0.000, 1.717, 0.020, 25.202, 21.822
3.920, -4.000, 0.000, 0.000, 1.715, 0.020, 25.190, 21.901
4.000, -4.000, 0.000, 0.000, 1.714, 0.020, 25.179, 21.980
4.080, -4.000, 0.000, 0.000, 1.711, 0.020, 25.168, 22.059
4.160, -4.000, 0.000, 0.000, 1.709, 0.020, 25.157, 22.138
4.240, -4.000, 0.000, 0.000, 1.706, 0.020, 25.146, 22.218
4.320, -4.000, 0.000, 0.000, 1.703, 0.020, 25.135, 22.297
4.400, -4.000, 0.000, 0.000, 1.699, 0.020, 25.125, 22.376
4.480, -4.000, 0.000, 0.000, 1.696, 0.020, 25.114, 22.456
4.560, -4.000, 0.000, 0.000, 1.692, 0.020, 25.105, 22.535
4.640, -4.000, 0.000, 0.000, 1.688, 0.020, 25.095, 22.614
4.720, -4.000, 0.000, 0.000, 1.683, 0.020, 25.086, 22.694
4.800, -4.000, 0.000, 0.000, 1.678, 0.020, 25.077, 22.773
4.880, -4.000, 0.000, 0.000, 1.673, 0.020, 25.069, 22.853
4.960, -4.000, 0.000, 0.000, 1.668, 0.020, 25.061, 22.933
5.040, -4.000, 0.000, 0.000, 1.663, 0.020, 25.053, 23.012
5.120, -4.000, 0.000, 0.000, 1.658, 0.020, 25.046, 23.092
5.200, -4.000, 0.000, 0.000, 1.652, 0.020, 25.039, 23.172
5.280, -4.000, 0.000, 0.000, 1.646, 0.020, 25.033, 23.251
5.360, -4.000, 0.000, 0.000, 1.641, 0.020, 25.027, 23.331
5.440, -4.000, 0.000, 0.000, 1.635, 0.020, 25.022, 23.411
5.520, -4.000, 0.000, 0.000, 1.629, 0.020, 25.017, 23.491
5.600, -4.000, 0.000, 0.000, 1.623, 0.020, 25.013, 23.571
5.680, -4.000, 0.000, 0.000, 1.617, 0.020, 25.009, 23.651
5.760, -4.000, 0.000, 0.000, 1.612, 0.020, 25.005, 23.730
5.840, -4.000, 0.000, 0.000, 1.606, 0.020, 25.002, 23.810
5.920, -4.000, 0.000, 0.000, 1.600, 0.020, 25.000, 23.890
6.000, -4.000, 0.000, 0.000, 1.595, 0.020, 24.997, 23.970
6.080, -4.000, 0.000, 0.000, 1.590, 0.020, 24.996, 24.050
6.157, -3.840, 8.000, 0.000, 1.585, 0.020, 24.995, 24.127
6.230, -3.680, 8.000, 0.000, 1.580, 0.020, 24.994, 24.201
6.301, -3.520, 8.000, 0.000, 1.576, 0.020, 24.993, 24.271
6.368, -3.360, 8.000, 0.000, 1.573, 0.020, 24.993, 24.338
6.432, -3.200, 8.000, 0.000, 1.569, 0.020, 24.993, 24.402
6.493, -3.040, 8.000, 0.000, 1.566, 0.020, 24.993, 24.463
6.550, -2.880, 8.000, 0.000, 1.564, 0.020, 24.993, 24.521
6.605, -2.720, 8.000, 0.000, 1.562, 0.020, 24.994, 24.575
6.656, -2.560, 8.000, 0.000, 1.560, 0.020, 24.994, 24.626
6.704, -2.400, 8.000, 0.000, 1.558, 0.020, 24.995, 24.674
6.749, -2.240, 8.000, 0.000, 1.557, 0.020, 24.995, 24.719
6.790, -2.080, 8.000, 0.000, 1.556, 0.020, 24.996, 24.761
6.829, -1.920, 8.000, 0.000, 1.555, 0.020, 24.997, 24.799
6.864, -1.760, 8.000, 0.000, 1.555, 0.020, 24.997, 24.834
6.896, -1.600, 8.000, 0.000, 1.554, 0.020, 24.998, 24.866
6.925, -1.440, 8.000, 0.000, 1.554, 0.020, 24.998, 24.895
6.950, -1.280, 8.000, 0.000, 1.554, 0.020, 24.999, 24.921
6.973, -1.120, 8.000, 0.000, 1.554, 0.020, 24.999, 24.943
6.992, -0.960, 8.000, 0.000, 1.553, 0.020, 24.999, 24.962
7.008, -0.800, 8.000, 0.000, 1.553, 0.020, 25.000, 24.978
7.021, -0.640, 8.000, 0.000, 1.553, 0.020, 25.000, 24.991
7.030, -0.480, 8.000, 0.000, 4.695, 0.020, 25.000, 24.999
7.037, -0.320, 8.000, 0.000, 4.695, 0.020, 25.000, 24.993
7.040, 0.000, 0.000, 0.000, 4.695, 0.020, 25.000, 24.990
7.040, 0.000, 0.000, 0.000, 4.695, 0.020, 25.000, 24.990
7.040, 0.000, 0.000, 0.000, 4.695, 0.020, 25.000, 24.990
7.040, 0.000, 0.000, 0.000, 4.695, 0.020, 25.000, 24.990
7.040, 0.000, 0.000, 0.000, 4.695, 0.020, 25.000, 24.990
7.040, 0.000, 0.000, 0.000, 4.695, 0.020, 25.000, 24.990
7.043, 0.160, 8.000, 0.000, 4.695, 0.020, 25.000, 24.987
7.050, 0.320, 8.000, 0.000, 4.695, 0.020, 25.000, 24.980
7.059, 0.480, 8.000, 0.000, 4.695, 0.020, 24.999, 24.971
7.072, 0.640, 8.000, 0.000, 4.695, 0.020, 24.999, 24.958
7.088, 0.800, 8.000, 0.000, 4.695, 0.020, 24.999, 24.942
7.107, 0.960, 8.000, 0.000, 4.695, 0.020, 24.999, 24.923
7.130, 1.120, 8.000, 0.000, 4.695, 0.020, 24.998, 24.900
7.155, 1.280, 8.000, 0.000, 4.695, 0.020, 24.998, 24.875
7.184, 1.440, 8.000, 0.000, 4.694, 0.020, 24.997, 24.846
7.216, 1.600, 8.000, 0.000, 4.694, 0.020, 24.997, 24.814
7.251, 1.760, 8.000, 0.000, 4.694, 0.020, 24.996, 24.779
7.290, 1.920, 8.000, 0.000, 4.694, 0.020, 24.995, 24.740
7.331, 2.080, 8.000, 0.000, 4.693, 0.020, 24.995, 24.699
7.376, 2.240, 8.000, 0.000, 4.693, 0.020, 24.994, 24.654
7.424, 2.400, 8.000, 0.000, 4.692, 0.020, 24.993, 24.606
7.475, 2.560, 8.000, 0.000, 4.691, 0.020, 24.992, 24.555
7.530, 2.720, 8.000, 0.000, 4.690, 0.020, 24.990, 24.500
7.587, 2.880, 8.000, 0.000, 4.689, 0.020, 24.989, 24.443
7.648, 3.040, 8.000, 0.000, 4.688, 0.020, 24.988, 24.382
7.712, 3.200, 8.000, 0.000, 4.686, 0.020, 24.986, 24.318
7.779, 3.360, 8.000, 0.000, 4.684, 0.020, 24.984, 24.251
7.850, 3.520, 8.000, 0.000, 4.682, 0.020, 24.982, 24.180
7.923, 3.680, 8.000, 0.000, 4.680, 0.020, 24.980, 24.107
8.000, 3.840, 8.000, 0.000, 4.677, 0.020, 24.977, 24.030
8.080, 4.000, 0.000, 0.000, 4.674, 0.020, 24.974, 23.950
8.160, 4.000, 0.000, 0.000, 4.671, 0.020, 24.971, 23.870
8.240, 4.000, 0.000, 0.000, 4.667, 0.020, 24.968, 23.790
8.320, 4.000, 0.000, 0.000, 4.663, 0.020, 24.964, 23.710
8.400, 4.000, 0.000, 0.000, 4.659, 0.020, 24.960, 23.630
8.480, 4.000, 0.000, 0.000, 4.654, 0.020, 24.955, 23.551
8.560, 4.000, 0.000, 0.000, 4.650, 0.020, 24.950, 23.471
8.640, 4.000, 0.000, 0.000, 4.645, 0.020, 24.945, 23.391
8.720, 4.000, 0.000, 0.000, 4.639, 0.020, 24.940, 23.311
8.800, 4.000, 0.000, 0.000, 4.634, 0.020, 24.933, 23.231
8.880, 4.000, 0.000, 0.000, 4.628, 0.020, 24.927, 23.152
8.960, 4.000, 0.000, 0.000, 4.621, 0.020, 24.920, 23.072
9.040, 4.000, 0.000, 0.000, 4.615, 0.020, 24.912, 22.992
9.120, 4.000, 0.000, 0.000, 4.607, 0.020, 24.904, 22.913
9.200, 4.000, 0.000, 0.000, 4.600, 0.020, 24.896, 22.833
9.280, 4.000, 0.000, 0.000, 4.592, 0.020, 24.886, 22.754
9.360, 4.000, 0.000, 0.000, 4.584, 0.020, 24.876, 22.674
9.440, 4.000, 0.000, 0.000, 4.575, 0.020, 24.866, 22.595
9.520, 4.000, 0.000, 0.000, 4.566, 0.020, 24.854, 22.516
9.600, 4.000, 0.000, 0.000, 4.556, 0.020, 24.842, 22.437
9.680, 4.000, 0.000, 0.000, 4.545, 0.020, 24.829, 22.358
9.760, 4.000, 0.000, 0.000, 4.534, 0.020, 24.816, 22.279
9.840, 4.000, 0.000, 0.000, 4.523, 0.020, 24.801, 22.200
9.920, 4.000, 0.000, 0.000, 4.511, 0.020, 24.786, 22.122
10.000, 4.000, 0.000, 0.000, 4.498, 0.020, 24.769, 22.044
10.080, 4.000, 0.000, 0.000, 4.484, 0.020, 24.751, 21.965
10.160, 4.000, 0.000, 0.000, 4.470, 0.020, 24.733, 21.888
10.240, 4.000, 0.000, 0.000, 4.454, 0.020, 24.713, 21.810
10.320, 4.000, 0.000, 0.000, 4.438, 0.020, 24.692, 21.733
10.400, 4.000, 0.000, 0.000, 4.421, 0.020, 24.670, 21.656
10.480, 4.000, 0.000, 0.000, 4.404, 0.020, 24.646, 21.580
10.560, 4.000, 0.000, 0.000, 4.385, 0.020, 24.621, 21.504
10.640, 4.000, 0.000, 0.000, 4.365, 0.020, 24.595, 21.428
10.720, 4.000, 0.000, 0.000, 4.344, 0.020, 24.566, 21.353
10.800, 4.000, 0.000, 0.000, 4.321, 0.020, 24.537, 21.279
10.880, 4.000, 0.000, 0.000, 4.298, 0.020, 24.505, 21.205
10.960, 4.000, 0.000, 0.000, 4.273, 0.020, 24.472, 21.133
11.040, 4.000, 0.000, 0.000, 4.247, 0.020, 24.437, 21.061
11.120, 4.000, 0.000, 0.000, 4.220, 0.020, 24.401, 20.990
11.200, 4.000, 0.000, 0.000, 4.191, 0.020, 24.362, 20.920
11.280, 4.000, 0.000, 0.000, 4.161, 0.020, 24.321, 20.851
11.360, 4.000, 0.000, 0.000, 4.130, 0.020, 24.278, 20.783
11.440, 4.000, 0.000, 0.000, 4.097, 0.020, 24.233, 20.717
11.520, 4.000, 0.000, 0.000, 4.063, 0.020, 24.185, 20.653
11.600, 4.000, 0.000, 0.000, 4.028, 0.020, 24.136, 20.590
11.680, 4.000, 0.000, 0.000, 3.992, 0.020, 24.084, 20.529
11.760, 4.000, 0.000, 0.000, 3.955, 0.020, 24.030, 20.470
11.840, 4.000, 0.000, 0.000, 3.917, 0.020, 23.974, 20.413
11.920, 4.000, 0.000, 0.000, 3.879, 0.020, 23.916, 20.358
12.000, 4.000, 0.000, 0.000, 3.840, 0.020, 23.856, 20.305
12.080, 4.000, 0.000, 0.000, 3.801, 0.020, 23.794, 20.255
12.160, 4.000, 0.000, 0.000, 3.762, 0.020, 23.730, 20.207
12.240, 4.000, 0.000, 0.000, 3.724, 0.020, 23.664, 20.162
12.320, 4.000, 0.000, 0.000, 3.686, 0.020, 23.596, 20.119
12.400, 4.000, 0.000, 0.000, 3.649, 0.020, 23.527, 20.079
12.480, 4.000, 0.000, 0.000, 3.612, 0.020, 23.456, 20.042
12.560, 4.000, 0.000, 0.000, 3.577, 0.020, 23.384, 20.007
12.640, 4.000, 0.000, 0.000, 3.543, 0.020, 23.311, 19.974
12.720, 4.000, 0.000, 0.000, 3.511, 0.020, 23.237, 19.944
12.800, 4.000, 0.000, 0.000, 3.479, 0.020, 23.162, 19.916
12.880, 4.000, 0.000, 0.000, 3.450, 0.020, 23.086, 19.891
12.960, 4.000, 0.000, 0.000, 3.421, 0.020, 23.009, 19.868
13.040, 4.000, 0.000, 0.000, 3.394, 0.020, 22.932, 19.847
13.120, 4.000, 0.000, 0.000, 3.368, 0.020, 22.855, 19.828
13.200, 4.000, 0.000, 0.000, 3.344, 0.020, 22.776, 19.811
13.280, 4.000, 0.000, 0.000, 3.321, 0.020, 22.698, 19.796
13.360, 4.000, 0.000, 0.000, 3.300, 0.020, 22.619, 19.782
13.440, 4.000, 0.000, 0.000, 3.280, 0.020, 22.540, 19.770
13.520, 4.000, 0.000, 0.000, 3.261, 0.020, 22.461, 19.760
13.600, 4.000, 0.000, 0.000, 3.243, 0.020, 22.381, 19.751
13.680, 4.000, 0.000, 0.000, 3.226, 0.020, 22.301, 19.744
13.760, 4.000, 0.000, 0.000, 3.211, 0.020, 22.222, 19.738
13.840, 4.000, 0.000, 0.000, 3.196, 0.020, 22.142, 19.733
13.920, 4.000, 0.000, 0.000, 3.182, 0.020, 22.062, 19.729
14.000, 4.000, 0.000, 0.000, 3.169, 0.020, 21.982, 19.726
14.080, 4.000, 0.000, 0.000, 3.157, 0.020, 21.902, 19.725
14.160, 4.000, 0.000, 0.000, 3.146, 0.020, 21.822, 19.724
14.240, 4.000, 0.000, 0.000, 3.136, 0.020, 21.742, 19.724
14.320, 4.000, 0.000, 0.000, 3.126, 0.020, 21.662, 19.725
14.400, 4.000, 0.000, 0.000, 3.117, 0.020, 21.582, 19.726
14.480, 4.000, 0.000, 0.000, 3.109, 0.020, 21.502, 19.729
14.560, 4.000, 0.000, 0.000, 3.101, 0.020, 21.422, 19.731
14.640, 4.000, 0.000, 0.000, 3.094, 0.020, 21.342, 19.735
14.720, 4.000, 0.000, 0.000, 3.088, 0.020, 21.262, 19.739
14.800, 4.000, 0.000, 0.000, 3.082, 0.020, 21.182, 19.744
14.880, 4.000, 0.000, 0.000, 3.076, 0.020, 21.102, 19.749
14.960, 4.000, 0.000, 0.000, 3.071, 0.020, 21.023, 19.754
15.040, 4.000, 0.000, 0.000, 3.067, 0.020, 20.943, 19.760
15.120, 4.000, 0.000, 0.000, 3.063, 0.020, 20.863, 19.766
15.200, 4.000, 0.000, 0.000, 3.059, 0.020, 20.783, 19.772
15.280, 4.000, 0.000, 0.000, 3.056, 0.020, 20.704, 19.779
15.360, 4.000, 0.000, 0.000, 3.053, 0.020, 20.624, 19.786
15.440, 4.000, 0.000, 0.000, 3.051, 0.020, 20.544, 19.793
15.520, 4.000, 0.000, 0.000, 3.049, 0.020, 20.465, 19.801
15.600, 4.000, 0.000, 0.000, 3.047, 0.020, 20.385, 19.808
15.680, 4.000, 0.000, 0.000, 3.046, 0.020, 20.305, 19.816
15.760, 4.000, 0.000, 0.000, 3.045, 0.020, 20.226, 19.823
15.840, 4.000, 0.000, 0.000, 3.044, 0.020, 20.146, 19.831
15.920, 4.000, 0.000, 0.000, 3.044, 0.020, 20.066, 19.839
16.000, 4.000, 0.000, 0.000, 3.044, 0.020, 19.987, 19.847
16.080, 4.000, 0.000, 0.000, 3.044, 0.020, 19.907, 19.854
16.160, 4.000, 0.000, 0.000, 3.045, 0.020, 19.828, 19.862
16.240, 4.000, 0.000, 0.000, 3.046, 0.020, 19.748, 19.870
16.320, 4.000, 0.000, 0.000, 3.047, 0.020, 19.668, 19.877
16.400, 4.000, 0.000, 0.000, 3.048, 0.020, 19.589, 19.885
16.480, 4.000, 0.000, 0.000, 3.050, 0.020, 19.509, 19.892
16.560, 4.000, 0.000, 0.000, 3.052, 0.020, 19.429, 19.900
16.640, 4.000, 0.000, 0.000, 3.054, 0.020, 19.350, 19.907
16.720, 4.000, 0.000, 0.000, 3.056, 0.020, 19.270, 19.914
16.800, 4.000, 0.000, 0.000, 3.059, 0.020, 19.190, 19.920
16.880, 4.000, 0.000, 0.000, 3.062, 0.020, 19.110, 19.927
16.960, 4.000, 0.000, 0.000, 3.064, 0.020, 19.031, 19.933
17.040, 4.000, 0.000, 0.000, 3.068, 0.020, 18.951, 19.939
17.120, 4.000, 0.000, 0.000, 3.071, 0.020, 18.871, 19.945
17.200, 4.000, 0.000, 0.000, 3.074, 0.020, 18.791, 19.950
17.280, 4.000, 0.000, 0.000, 3.078, 0.020, 18.712, 19.956
17.360, 4.000, 0.000, 0.000, 3.081, 0.020, 18.632, 19.961
17.440, 4.000, 0.000, 0.000, 3.085, 0.020, 18.552, 19.965
17.520, 4.000, 0.000, 0.000, 3.089, 0.020, 18.472, 19.970
17.600, 4.000, 0.000, 0.000, 3.093, 0.020, 18.392, 19.974
17.680, 4.000, 0.000, 0.000, 3.097, 0.020, 18.312, 19.977
17.760, 4.000, 0.000, 0.000, 3.101, 0.020, 18.232, 19.981
17.840, 4.000, 0.000, 0.000, 3.105, 0.020, 18.152, 19.984
17.920, 4.000, 0.000, 0.000, 3.108, 0.020, 18.072, 19.987
18.000, 4.000, 0.000, 0.000, 3.112, 0.020, 17.992, 19.989
18.080, 4.000, 0.000, 0.000, 3.116, 0.020, 17.912, 19.992
18.160, 4.000, 0.000, 0.000, 3.120, 0.020, 17.832, 19.993
18.240, 4.000, 0.000, 0.000, 3.123, 0.020, 17.752, 19.995
18.320, 4.000, 0.000, 0.000, 3.126, 0.020, 17.672, 19.996
18.400, 4.000, 0.000, 0.000, 3.129, 0.020, 17.592, 19.997
18.480, 4.000, 0.000, 0.000, 3.132, 0.020, 17.512, 19.998
18.560, 4.000, 0.000, 0.000, 3.135, 0.020, 17.432, 19.999
18.640, 4.000, 0.000, 0.000, 3.137, 0.020, 17.352, 19.999
18.720, 4.000, 0.000, 0.000, 3.139, 0.020, 17.272, 20.000
18.800, 4.000, 0.000, 0.000, 3.140, 0.020, 17.192, 20.000
18.880, 4.000, 0.000, 0.000, 3.141, 0.020, 17.112, 20.000
18.880, 4.000, 0.000, 0.000, 3.141, 0.020, 17.112, 20.000
18.960, 4.000, 0.000, 0.000, 3.142, 0.020, 17.032, 20.000
19.040, 4.000, 0.000, 0.000, 3.142, 0.020, 16.952, 20.000
19.120, 4.000, 0.000, 0.000, 3.141, 0.020, 16.872, 20.000
19.200, 4.000, 0.000, 0.000, 3.140, 0.020, 16.792, 20.000
19.280, 4.000, 0.000, 0.000, 3.139, 0.020, 16.712, 20.000
19.360, 4.000, 0.000, 0.000, 3.137, 0.020, 16.632, 20.001
19.440, 4.000, 0.000, 0.000, 3.135, 0.020, 16.552, 20.001
19.520, 4.000, 0.000, 0.000, 3.133, 0.020, 16.472, 20.002
19.600, 4.000, 0.000, 0.000, 3.130, 0.020, 16.392, 20.002
19.680, 4.000, 0.000, 0.000, 3.127, 0.020, 16.312, 20.004
19.760, 4.000, 0.000, 0.000, 3.123, 0.020, 16.232, 20.005
19.840, 4.000, 0.000, 0.000, 3.119, 0.020, 16.153, 20.006
19.920, 4.000, 0.000, 0.000, 3.115, 0.020, 16.073, 20.008
20.000, 4.000, 0.000, 0.000, 3.110, 0.020, 15.993, 20.011
20.080, 4.000, 0.000, 0.000, 3.106, 0.020, 15.913, 20.013
20.160, 4.000, 0.000, 0.000, 3.100, 0.020, 15.833, 20.017
20.240, 4.000, 0.000, 0.000, 3.095, 0.020, 15.753, 20.020
20.320, 4.000, 0.000, 0.000, 3.089, 0.020, 15.673, 20.024
20.400, 4.000, 0.000, 0.000, 3.083, 0.020, 15.593, 20.028
20.480, 4.000, 0.000, 0.000, 3.077, 0.020, 15.513, 20.033
20.560, 4.000, 0.000, 0.000, 3.070, 0.020, 15.433, 20.039
20.640, 4.000, 0.000, 0.000, 3.063, 0.020, 15.354, 20.045
20.720, 4.000, 0.000, 0.000, 3.056, 0.020, 15.274, 20.051
20.800, 4.000, 0.000, 0.000, 3.049, 0.020, 15.194, 20.058
20.880, 4.000, 0.000, 0.000, 3.041, 0.020, 15.114, 20.066
20.960, 4.000, 0.000, 0.000, 3.034, 0.020, 15.035, 20.074
21.040, 4.000, 0.000, 0.000, 3.026, 0.020, 14.955, 20.083
21.120, 4.000, 0.000, 0.000, 3.018, 0.020, 14.876, 20.093
21.200, 4.000, 0.000, 0.000, 3.009, 0.020, 14.797, 20.103
21.280, 4.000, 0.000, 0.000, 3.001, 0.020, 14.717, 20.114
21.360, 4.000, 0.000, 0.000, 2.992, 0.020, 14.638, 20.126
21.440, 4.000, 0.000, 0.000, 2.983, 0.020, 14.559, 20.138
21.520, 4.000, 0.000, 0.000, 2.974, 0.020, 14.480, 20.151
21.600, 4.000, 0.000, 0.000, 2.965, 0.020, 14.401, 20.165
21.680, 4.000, 0.000, 0.000, 2.955, 0.020, 14.323, 20.179
21.760, 4.000, 0.000, 0.000, 2.946, 0.020, 14.244, 20.194
21.840, 4.000, 0.000, 0.000, 2.937, 0.020, 14.166, 20.210
21.920, 4.000, 0.000, 0.000, 2.927, 0.020, 14.088, 20.227
22.000, 4.000, 0.000, 0.000, 2.917, 0.020, 14.009, 20.244
22.080, 4.000, 0.000, 0.000, 2.908, 0.020, 13.932, 20.262
22.160, 4.000, 0.000, 0.000, 2.898, 0.020, 13.854, 20.281
22.240, 4.000, 0.000, 0.000, 2.888, 0.020, 13.776, 20.301
22.320, 4.000, 0.000, 0.000, 2.878, 0.020, 13.699, 20.321
22.400, 4.000, 0.000, 0.000, 2.868, 0.020, 13.622, 20.343
22.480, 4.000, 0.000, 0.000, 2.858, 0.020, 13.545, 20.365
22.560, 4.000, 0.000, 0.000, 2.848, 0.020, 13.468, 20.387
22.640, 4.000, 0.000, 0.000, 2.839, 0.020, 13.392, 20.411
22.720, 4.000, 0.000, 0.000, 2.829, 0.020, 13.316, 20.435
22.800, 4.000, 0.000, 0.000, 2.819, 0.020, 13.240, 20.460
22.880, 4.000, 0.000, 0.000, 2.809, 0.020, 13.164, 20.486
22.960, 4.000, 0.000, 0.000, 2.800, 0.020, 13.088, 20.512
23.040, 4.000, 0.000, 0.000, 2.790, 0.020, 13.013, 20.540
23.120, 4.000, 0.000, 0.000, 2.781, 0.020, 12.938, 20.567
23.200, 4.000, 0.000, 0.000, 2.771, 0.020, 12.863, 20.596
23.280, 4.000, 0.000, 0.000, 2.762, 0.020, 12.789, 20.625
23.360, 4.000, 0.000, 0.000, 2.753, 0.020, 12.715, 20.655
23.440, 4.000, 0.000, 0.000, 2.744, 0.020, 12.641, 20.686
23.520, 4.000, 0.000, 0.000, 2.735, 0.020, 12.567, 20.717
23.600, 4.000, 0.000, 0.000, 2.726, 0.020, 12.494, 20.749
23.680, 4.000, 0.000, 0.000, 2.718, 0.020, 12.421, 20.782
23.760, 4.000, 0.000, 0.000, 2.709, 0.020, 12.348, 20.815
23.840, 4.000, 0.000, 0.000, 2.701, 0.020, 12.276, 20.849
23.920, 4.000, 0.000, 0.000, 2.693, 0.020, 12.203, 20.883
24.000, 4.000, 0.000, 0.000, 2.685, 0.020, 12.131, 20.918
24.080, 4.000, 0.000, 0.000, 2.677, 0.020, 12.060, 20.954
