position,velocity,acceleration,jerk,heading,dt,x,y
0.000, 0.000, 0.000, 0.000, 0.000, 0.020, 16.000, 21.590
0.003, 0.160, 7.999, 399.954, -0.000, 0.020, 15.997, 21.590
0.010, 0.320, 7.994, -0.273, -0.000, 0.020, 15.990, 21.590
0.019, 0.480, 7.983, -0.544, -0.000, 0.020, 15.981, 21.590
0.032, 0.639, 7.966, -0.812, -0.000, 0.020, 15.968, 21.590
0.048, 0.798, 7.945, -1.076, -0.000, 0.020, 15.952, 21.590
0.067, 0.956, 7.918, -1.332, -0.000, 0.020, 15.933, 21.590
0.089, 1.114, 7.887, -1.581, -0.000, 0.020, 15.911, 21.590
0.115, 1.271, 7.850, -1.821, -0.000, 0.020, 15.885, 21.590
0.143, 1.427, 7.809, -2.050, -0.001, 0.020, 15.857, 21.590
0.175, 1.582, 7.764, -2.268, -0.001, 0.020, 15.825, 21.590
0.210, 1.737, 7.714, -2.474, -0.001, 0.020, 15.790, 21.590
0.247, 1.890, 7.661, -2.666, -0.002, 0.020, 15.753, 21.590
0.288, 2.042, 7.604, -2.844, -0.003, 0.020, 15.712, 21.590
0.332, 2.193, 7.544, -3.007, -0.004, 0.020, 15.668, 21.591
0.379, 2.342, 7.481, -3.155, -0.005, 0.020, 15.621, 21.591
0.429, 2.491, 7.415, -3.288, -0.006, 0.020, 15.571, 21.591
0.482, 2.638, 7.347, -3.404, -0.007, 0.020, 15.518, 21.591
0.537, 2.783, 7.277, -3.504, -0.009, 0.020, 15.463, 21.592
0.596, 2.927, 7.205, -3.586, -0.011, 0.020, 15.404, 21.592
0.657, 3.070, 7.132, -3.651, -0.014, 0.020, 15.343, 21.593
0.721, 3.211, 7.058, -3.698, -0.016, 0.020, 15.279, 21.594
0.788, 3.351, 6.984, -3.725, -0.019, 0.020, 15.212, 21.595
0.858, 3.489, 6.909, -3.732, -0.023, 0.020, 15.142, 21.597
0.931, 3.626, 6.835, -3.717, -0.027, 0.020, 15.069, 21.599
1.006, 3.761, 6.761, -3.678, -0.031, 0.020, 14.994, 21.601
1.084, 3.895, 6.689, -3.612, -0.036, 0.020, 14.916, 21.603
1.164, 4.027, 6.619, -3.518, -0.042, 0.020, 14.836, 21.607
1.248, 4.158, 6.551, -3.391, -0.047, 0.020, 14.753, 21.610
1.333, 4.288, 6.486, -3.228, -0.054, 0.020, 14.667, 21.615
1.422, 4.416, 6.426, -3.025, -0.061, 0.020, 14.579, 21.620
1.512, 4.544, 6.370, -2.777, -0.069, 0.020, 14.488, 21.626
1.606, 4.670, 6.321, -2.479, -0.077, 0.020, 14.395, 21.632
1.702, 4.796, 6.278, -2.126, -0.086, 0.020, 14.300, 21.640
1.800, 4.921, 6.244, -1.712, -0.095, 0.020, 14.201, 21.649
1.901, 5.045, 6.219, -1.232, -0.105, 0.020, 14.101, 21.659
2.004, 5.169, 6.206, -0.683, -0.116, 0.020, 13.998, 21.671
2.110, 5.293, 6.205, -0.059, -0.128, 0.020, 13.893, 21.683
2.219, 5.418, 6.217, 0.640, -0.140, 0.020, 13.786, 21.698
2.330, 5.542, 6.246, 1.415, -0.153, 0.020, 13.676, 21.714
2.443, 5.668, 6.291, 2.264, -0.166, 0.020, 13.564, 21.732
2.559, 5.795, 6.355, 3.183, -0.180, 0.020, 13.450, 21.752
2.677, 5.924, 6.438, 4.162, -0.195, 0.020, 13.334, 21.774
2.798, 6.055, 6.542, 5.189, -0.210, 0.020, 13.215, 21.798
2.922, 6.188, 6.667, 6.250, -0.225, 0.020, 13.094, 21.825
3.049, 6.325, 6.813, 7.324, -0.242, 0.020, 12.971, 21.854
3.178, 6.464, 6.981, 8.389, -0.258, 0.020, 12.846, 21.886
3.310, 6.608, 7.169, 9.421, -0.275, 0.020, 12.718, 21.921
3.445, 6.755, 7.377, 10.393, -0.292, 0.020, 12.589, 21.959
3.583, 6.907, 7.603, 11.279, -0.309, 0.020, 12.457, 22.000
3.725, 7.064, 7.844, 12.057, -0.326, 0.020, 12.323, 22.044
3.869, 7.226, 8.098, 12.705, -0.343, 0.020, 12.186, 22.091
4.017, 7.393, 8.362, 13.208, -0.360, 0.020, 12.047, 22.142
4.168, 7.566, 8.633, 13.555, -0.377, 0.020, 11.906, 22.197
4.323, 7.744, 8.908, 13.746, -0.393, 0.020, 11.763, 22.255
4.482, 7.928, 9.184, 13.784, -0.409, 0.020, 11.617, 22.317
4.644, 8.117, 9.457, 13.681, -0.425, 0.020, 11.468, 22.383
4.810, 8.311, 9.727, 13.456, -0.440, 0.020, 11.317, 22.452
4.981, 8.511, 9.989, 13.131, -0.454, 0.020, 11.164, 22.526
5.155, 8.716, 10.244, 12.733, -0.467, 0.020, 11.008, 22.603
5.333, 8.926, 10.490, 12.290, -0.479, 0.020, 10.849, 22.685
5.516, 9.140, 10.726, 11.831, -0.491, 0.020, 10.687, 22.770
5.703, 9.359, 10.954, 11.381, -0.501, 0.020, 10.522, 22.859
5.895, 9.583, 11.173, 10.964, -0.510, 0.020, 10.355, 22.952
6.091, 9.811, 11.385, 10.599, -0.518, 0.020, 10.184, 23.048
6.292, 10.042, 11.591, 10.301, -0.525, 0.020, 10.010, 23.148
6.498, 10.278, 11.793, 10.077, -0.530, 0.020, 9.832, 23.252
6.708, 10.518, 11.991, 9.929, -0.533, 0.020, 9.651, 23.358
6.923, 10.762, 12.188, 9.851, -0.536, 0.020, 9.465, 23.468
7.143, 11.010, 12.385, 9.826, -0.536, 0.020, 9.276, 23.581
7.367, 11.154, 7.226, -257.927, -0.535, 0.020, 9.084, 23.694
7.588, 11.082, -3.594, -541.016, -0.532, 0.020, 8.893, 23.807
7.808, 11.006, -3.793, -9.942, -0.528, 0.020, 8.704, 23.919
8.027, 10.926, -3.993, -9.990, -0.522, 0.020, 8.515, 24.028
8.244, 10.843, -4.195, -10.101, -0.515, 0.020, 8.326, 24.136
8.459, 10.755, -4.401, -10.290, -0.507, 0.020, 8.139, 24.241
8.672, 10.662, -4.612, -10.561, -0.497, 0.020, 7.952, 24.343
8.883, 10.566, -4.830, -10.910, -0.486, 0.020, 7.765, 24.443
9.093, 10.465, -5.057, -11.327, -0.474, 0.020, 7.580, 24.540
9.300, 10.359, -5.292, -11.795, -0.461, 0.020, 7.395, 24.633
9.505, 10.248, -5.538, -12.291, -0.447, 0.020, 7.211, 24.723
9.707, 10.132, -5.794, -12.790, -0.433, 0.020, 7.027, 24.810
9.908, 10.011, -6.059, -13.261, -0.417, 0.020, 6.845, 24.892
10.105, 9.884, -6.333, -13.675, -0.402, 0.020, 6.664, 24.971
10.300, 9.752, -6.613, -14.001, -0.385, 0.020, 6.484, 25.046
10.493, 9.614, -6.897, -14.212, -0.368, 0.020, 6.305, 25.117
10.682, 9.470, -7.183, -14.284, -0.351, 0.020, 6.127, 25.183
10.868, 9.321, -7.467, -14.200, -0.334, 0.020, 5.952, 25.246
11.052, 9.166, -7.746, -13.950, -0.316, 0.020, 5.778, 25.304
11.232, 9.006, -8.016, -13.532, -0.299, 0.020, 5.606, 25.359
11.409, 8.840, -8.275, -12.951, -0.281, 0.020, 5.437, 25.409
11.582, 8.670, -8.520, -12.220, -0.264, 0.020, 5.270, 25.456
11.752, 8.495, -8.747, -11.358, -0.247, 0.020, 5.106, 25.499
11.918, 8.316, -8.955, -10.390, -0.231, 0.020, 4.944, 25.538
12.081, 8.133, -9.142, -9.341, -0.215, 0.020, 4.785, 25.574
12.240, 7.947, -9.306, -8.241, -0.199, 0.020, 4.630, 25.607
12.395, 7.758, -9.449, -7.117, -0.184, 0.020, 4.477, 25.636
12.546, 7.567, -9.569, -5.994, -0.169, 0.020, 4.329, 25.663
12.694, 7.373, -9.666, -4.896, -0.155, 0.020, 4.183, 25.687
12.837, 7.178, -9.743, -3.841, -0.142, 0.020, 4.041, 25.708
12.977, 6.982, -9.800, -2.845, -0.129, 0.020, 3.903, 25.727
13.113, 6.786, -9.839, -1.918, -0.117, 0.020, 3.768, 25.744
13.245, 6.588, -9.860, -1.067, -0.106, 0.020, 3.637, 25.758
13.372, 6.391, -9.866, -0.296, -0.096, 0.020, 3.510, 25.771
13.496, 6.194, -9.858, 0.395, -0.086, 0.020, 3.386, 25.782
13.616, 5.997, -9.838, 1.006, -0.076, 0.020, 3.267, 25.792
13.732, 5.801, -9.807, 1.542, -0.068, 0.020, 3.151, 25.800
13.844, 5.606, -9.767, 2.006, -0.060, 0.020, 3.039, 25.808
13.953, 5.411, -9.719, 2.405, -0.053, 0.020, 2.931, 25.814
14.057, 5.218, -9.664, 2.744, -0.046, 0.020, 2.827, 25.819
14.157, 5.026, -9.603, 3.029, -0.040, 0.020, 2.727, 25.823
14.254, 4.835, -9.538, 3.265, -0.034, 0.020, 2.630, 25.827
14.347, 4.646, -9.469, 3.458, -0.029, 0.020, 2.537, 25.830
14.436, 4.458, -9.397, 3.612, -0.025, 0.020, 2.448, 25.832
14.522, 4.272, -9.322, 3.732, -0.021, 0.020, 2.363, 25.834
14.603, 4.087, -9.246, 3.821, -0.017, 0.020, 2.281, 25.836
14.682, 3.903, -9.168, 3.884, -0.014, 0.020, 2.203, 25.837
14.756, 3.721, -9.089, 3.921, -0.011, 0.020, 2.128, 25.838
14.827, 3.541, -9.011, 3.935, -0.009, 0.020, 2.058, 25.838
14.894, 3.363, -8.932, 3.929, -0.007, 0.020, 1.990, 25.839
14.958, 3.186, -8.854, 3.902, -0.005, 0.020, 1.927, 25.839
15.018, 3.010, -8.777, 3.857, -0.004, 0.020, 1.866, 25.840
15.075, 2.836, -8.701, 3.794, -0.003, 0.020, 1.810, 25.840
15.128, 2.663, -8.627, 3.713, -0.002, 0.020, 1.756, 25.840
15.178, 2.492, -8.554, 3.615, -0.001, 0.020, 1.707, 25.840
15.224, 2.323, -8.485, 3.500, -0.001, 0.020, 1.660, 25.840
15.267, 2.154, -8.417, 3.368, -0.000, 0.020, 1.617, 25.840
15.307, 1.987, -8.353, 3.219, -0.000, 0.020, 1.577, 25.840
15.343, 1.821, -8.292, 3.055, -0.000, 0.020, 1.541, 25.840
15.377, 1.657, -8.234, 2.874, -0.000, 0.020, 1.508, 25.840
15.384, 0.383, -63.670, -2771.784, 0.000, 0.020, 1.500, 25.840
15.384, 0.000, -19.167, 2225.119, 0.000, 0.020, 1.500, 25.840
15.384, 0.000, 0.000, 958.374, 0.000, 0.020, 1.500, 25.840
15.384, 0.000, 0.000, 0.000, 0.000, 0.020, 1.500, 25.840
15.384, 0.000, 0.000, 0.000, 0.000, 0.020, 1.500, 25.840
15.384, 0.000, 0.000, 0.000, 0.000, 0.020, 1.500, 25.840
15.384, 0.000, 0.000, 0.000, 0.000, 0.020, 1.500, 25.840
15.384, 0.000, 0.000, 0.000, 0.000, 0.020, 1.500, 25.840
