position,velocity,acceleration,jerk,heading,dt,x,y
0.000, 0.000, 0.000, 0.000, 0.000, 0.020, 5.500, 16.239
0.003, 0.140, 7.000, 350.000, 0.000, 0.020, 5.503, 16.239
0.008, 0.280, 7.000, 0.000, 0.000, 0.020, 5.508, 16.239
0.017, 0.420, 7.000, -0.000, 0.000, 0.020, 5.517, 16.239
0.028, 0.560, 7.000, 0.000, 0.000, 0.020, 5.528, 16.239
0.042, 0.700, 7.000, -0.000, 0.000, 0.020, 5.542, 16.239
0.059, 0.840, 7.000, 0.000, 0.000, 0.020, 5.559, 16.239
0.078, 0.980, 7.000, -0.000, 0.000, 0.020, 5.578, 16.239
0.101, 1.120, 7.000, 0.000, 0.000, 0.020, 5.601, 16.239
0.126, 1.260, 7.000, 0.000, 0.000, 0.020, 5.626, 16.239
0.154, 1.400, 7.000, -0.000, 0.000, 0.020, 5.654, 16.239
0.185, 1.540, 7.000, 0.000, 0.000, 0.020, 5.685, 16.239
0.218, 1.680, 7.000, 0.000, 0.000, 0.020, 5.718, 16.239
0.255, 1.820, 7.000, -0.000, 0.000, 0.020, 5.755, 16.239
0.294, 1.960, 7.000, 0.000, 0.000, 0.020, 5.794, 16.239
0.336, 2.100, 7.000, 0.000, 0.000, 0.020, 5.836, 16.239
0.381, 2.240, 7.000, -0.000, 0.000, 0.020, 5.881, 16.239
0.428, 2.380, 7.000, 0.000, 0.000, 0.020, 5.928, 16.239
0.479, 2.520, 7.000, -0.000, 0.000, 0.020, 5.979, 16.239
0.532, 2.660, 7.000, 0.000, 0.000, 0.020, 6.032, 16.239
0.588, 2.800, 7.000, -0.000, 0.000, 0.020, 6.088, 16.239
0.647, 2.940, 7.000, -0.000, 0.000, 0.020, 6.147, 16.239
0.708, 3.080, 7.000, 0.000, 0.000, 0.020, 6.208, 16.239
0.773, 3.220, 7.000, -0.000, 0.000, 0.020, 6.273, 16.239
0.840, 3.360, 7.000, 0.000, 0.000, 0.020, 6.340, 16.239
0.910, 3.500, 7.000, -0.000, 0.000, 0.020, 6.410, 16.239
0.983, 3.640, 7.000, 0.000, 0.000, 0.020, 6.483, 16.239
1.058, 3.780, 7.000, 0.000, 0.000, 0.020, 6.558, 16.239
1.137, 3.920, 7.000, -0.000, 0.000, 0.020, 6.637, 16.239
1.217, 4.000, 4.000, -150.000, 0.000, 0.020, 6.717, 16.239
1.297, 4.000, 0.000, -200.000, 0.000, 0.020, 6.797, 16.239
1.377, 4.000, 0.000, 0.000, 0.000, 0.020, 6.877, 16.239
1.457, 4.000, 0.000, 0.000, 0.000, 0.020, 6.957, 16.239
1.537, 4.000, -0.000, -0.000, 0.000, 0.020, 7.037, 16.239
1.617, 4.000, 0.000, 0.000, 0.000, 0.020, 7.117, 16.239
1.697, 4.000, 0.000, -0.000, 0.000, 0.020, 7.197, 16.239
1.777, 4.000, 0.000, 0.000, 0.000, 0.020, 7.277, 16.239
1.857, 4.000, 0.000, 0.000, 0.000, 0.020, 7.357, 16.239
1.937, 4.000, 0.000, 0.000, 0.000, 0.020, 7.437, 16.239
2.017, 4.000, 0.000, 0.000, 0.000, 0.020, 7.517, 16.239
2.097, 4.000, 0.000, 0.000, 0.000, 0.020, 7.597, 16.239
2.177, 4.000, 0.000, 0.000, 0.000, 0.020, 7.677, 16.239
2.257, 4.000, 0.000, 0.000, 0.000, 0.020, 7.757, 16.239
2.337, 4.000, 0.000, 0.000, 0.000, 0.020, 7.837, 16.239
2.417, 4.000, 0.000, -0.000, 0.000, 0.020, 7.917, 16.239
2.497, 4.000, 0.000, 0.000, 0.000, 0.020, 7.997, 16.239
2.577, 4.000, 0.000, 0.000, 0.000, 0.020, 8.077, 16.239
2.657, 4.000, 0.000, 0.000, 0.000, 0.020, 8.157, 16.239
2.737, 4.000, 0.000, 0.000, 0.000, 0.020, 8.237, 16.239
2.817, 4.000, 0.000, 0.000, 0.000, 0.020, 8.317, 16.239
2.897, 4.000, 0.000, 0.000, 0.000, 0.020, 8.397, 16.239
2.977, 4.000, 0.000, 0.000, 0.000, 0.020, 8.477, 16.239
3.057, 4.000, -0.000, -0.000, 0.000, 0.020, 8.557, 16.239
3.137, 4.000, 0.000, 0.000, 0.000, 0.020, 8.637, 16.239
3.217, 4.000, 0.000, -0.000, 0.000, 0.020, 8.717, 16.239
3.297, 4.000, 0.000, 0.000, 0.000, 0.020, 8.797, 16.239
3.377, 4.000, 0.000, 0.000, 0.000, 0.020, 8.877, 16.239
3.457, 4.000, 0.000, 0.000, 0.000, 0.020, 8.957, 16.239
3.537, 4.000, 0.000, 0.000, 0.000, 0.020, 9.037, 16.239
3.617, 4.000, 0.000, 0.000, 0.000, 0.020, 9.117, 16.239
3.697, 4.000, 0.000, 0.000, 0.000, 0.020, 9.197, 16.239
3.777, 4.000, 0.000, 0.000, 0.000, 0.020, 9.277, 16.239
3.857, 4.000, 0.000, 0.000, 0.000, 0.020, 9.357, 16.239
3.937, 4.000, 0.000, 0.000, 0.000, 0.020, 9.437, 16.239
4.017, 4.000, 0.000, 0.000, 0.000, 0.020, 9.517, 16.239
4.097, 4.000, 0.000, 0.000, 0.000, 0.020, 9.597, 16.239
4.177, 4.000, 0.000, 0.000, 0.000, 0.020, 9.677, 16.239
4.257, 4.000, 0.000, 0.000, 0.000, 0.020, 9.757, 16.239
4.337, 4.000, 0.000, 0.000, 0.000, 0.020, 9.837, 16.239
4.417, 4.000, 0.000, 0.000, 0.000, 0.020, 9.917, 16.239
4.417, 0.000, -200.000, -10000.000, 0.000, 0.020, 9.917, 16.239
4.500, 4.140, 207.000, 20350.000, 0.000, 0.020, 10.000, 16.239
4.585, 4.294, 7.692, -9965.415, 0.000, 0.020, 10.085, 16.239
4.675, 4.463, 8.462, 38.492, 0.001, 0.020, 10.175, 16.239
4.767, 4.634, 8.560, 4.908, 0.002, 0.020, 10.267, 16.239
4.864, 4.807, 8.658, 4.934, 0.004, 0.020, 10.364, 16.240
4.963, 4.983, 8.758, 4.969, 0.007, 0.020, 10.463, 16.240
5.066, 5.160, 8.858, 5.011, 0.010, 0.020, 10.566, 16.241
5.173, 5.339, 8.959, 5.056, 0.014, 0.020, 10.673, 16.242
5.284, 5.520, 9.061, 5.103, 0.019, 0.020, 10.784, 16.244
5.398, 5.703, 9.164, 5.145, 0.024, 0.020, 10.898, 16.247
5.515, 5.889, 9.268, 5.176, 0.030, 0.020, 11.015, 16.250
5.637, 6.076, 9.371, 5.189, 0.037, 0.020, 11.137, 16.254
5.762, 6.266, 9.475, 5.173, 0.045, 0.020, 11.262, 16.259
5.891, 6.457, 9.577, 5.117, 0.054, 0.020, 11.391, 16.266
6.024, 6.651, 9.677, 5.006, 0.064, 0.020, 11.524, 16.273
6.161, 6.846, 9.774, 4.823, 0.075, 0.020, 11.660, 16.283
6.302, 7.044, 9.865, 4.550, 0.087, 0.020, 11.801, 16.294
6.447, 7.243, 9.948, 4.165, 0.100, 0.020, 11.945, 16.308
6.596, 7.443, 10.021, 3.646, 0.114, 0.020, 12.093, 16.324
6.749, 7.645, 10.080, 2.967, 0.129, 0.020, 12.245, 16.342
6.906, 7.847, 10.122, 2.105, 0.145, 0.020, 12.400, 16.364
7.067, 8.050, 10.143, 1.037, 0.163, 0.020, 12.559, 16.388
7.232, 8.253, 10.138, -0.255, 0.181, 0.020, 12.722, 16.417
7.401, 8.455, 10.102, -1.785, 0.201, 0.020, 12.888, 16.449
7.574, 8.655, 10.031, -3.555, 0.222, 0.020, 13.057, 16.485
7.751, 8.854, 9.920, -5.555, 0.244, 0.020, 13.230, 16.526
7.932, 9.049, 9.765, -7.758, 0.266, 0.020, 13.405, 16.572
8.117, 9.240, 9.563, -10.121, 0.290, 0.020, 13.582, 16.622
8.305, 9.426, 9.311, -12.577, 0.314, 0.020, 13.762, 16.678
8.498, 9.607, 9.010, -15.045, 0.340, 0.020, 13.944, 16.740
8.693, 9.780, 8.662, -17.424, 0.366, 0.020, 14.128, 16.808
8.892, 9.945, 8.269, -19.608, 0.392, 0.020, 14.313, 16.881
9.094, 10.102, 7.840, -21.488, 0.418, 0.020, 14.498, 16.961
9.299, 10.250, 7.380, -22.964, 0.445, 0.020, 14.685, 17.047
9.507, 10.388, 6.901, -23.957, 0.472, 0.020, 14.871, 17.139
9.717, 10.516, 6.413, -24.418, 0.498, 0.020, 15.057, 17.237
9.930, 10.635, 5.926, -24.332, 0.524, 0.020, 15.242, 17.341
10.145, 10.744, 5.452, -23.721, 0.550, 0.020, 15.427, 17.451
10.362, 10.844, 4.999, -22.643, 0.575, 0.020, 15.610, 17.566
10.580, 10.935, 4.575, -21.182, 0.599, 0.020, 15.792, 17.688
10.801, 11.019, 4.187, -19.444, 0.622, 0.020, 15.973, 17.814
11.023, 11.095, 3.836, -17.543, 0.643, 0.020, 16.152, 17.945
11.246, 11.166, 3.524, -15.589, 0.664, 0.020, 16.329, 18.081
11.471, 11.231, 3.250, -13.686, 0.683, 0.020, 16.505, 18.221
11.696, 11.291, 3.012, -11.921, 0.701, 0.020, 16.679, 18.365
11.923, 11.347, 2.804, -10.362, 0.717, 0.020, 16.851, 18.513
12.151, 11.400, 2.623, -9.059, 0.732, 0.020, 17.022, 18.664
12.380, 11.449, 2.462, -8.043, 0.745, 0.020, 17.191, 18.818
12.610, 11.495, 2.316, -7.331, 0.756, 0.020, 17.359, 18.975
12.841, 11.539, 2.177, -6.926, 0.766, 0.020, 17.526, 19.135
13.070, 11.435, -5.203, -368.990, 0.774, 0.020, 17.690, 19.294
13.296, 11.332, -5.145, 2.891, 0.780, 0.020, 17.852, 19.453
13.521, 11.230, -5.097, 2.401, 0.784, 0.020, 18.011, 19.611
13.743, 11.129, -5.062, 1.759, 0.786, 0.020, 18.168, 19.768
13.964, 11.028, -5.041, 1.016, 0.787, 0.020, 18.324, 19.925
14.180, 10.789, -11.959, -345.882, 0.786, 0.020, 18.477, 20.077
14.391, 10.553, -11.780, 8.944, 0.783, 0.020, 18.626, 20.226
14.597, 10.321, -11.617, 8.170, 0.778, 0.020, 18.773, 20.372
14.799, 10.092, -11.466, 7.544, 0.772, 0.020, 18.917, 20.513
14.996, 9.865, -11.324, 7.085, 0.764, 0.020, 19.059, 20.650
15.189, 9.641, -11.188, 6.808, 0.755, 0.020, 19.199, 20.783
15.378, 9.420, -11.053, 6.722, 0.744, 0.020, 19.337, 20.911
15.562, 9.202, -10.917, 6.834, 0.732, 0.020, 19.473, 21.035
15.741, 8.986, -10.774, 7.145, 0.718, 0.020, 19.607, 21.154
15.917, 8.774, -10.621, 7.651, 0.703, 0.020, 19.740, 21.268
16.088, 8.565, -10.454, 8.344, 0.687, 0.020, 19.872, 21.378
16.255, 8.360, -10.270, 9.206, 0.670, 0.020, 20.002, 21.483
16.419, 8.158, -10.066, 10.213, 0.652, 0.020, 20.131, 21.583
16.578, 7.961, -9.839, 11.329, 0.632, 0.020, 20.258, 21.679
16.733, 7.770, -9.589, 12.514, 0.612, 0.020, 20.385, 21.769
16.885, 7.583, -9.314, 13.714, 0.591, 0.020, 20.510, 21.855
17.033, 7.403, -9.017, 14.872, 0.569, 0.020, 20.633, 21.936
17.177, 7.229, -8.698, 15.926, 0.547, 0.020, 20.756, 22.013
17.319, 7.062, -8.362, 16.817, 0.524, 0.020, 20.877, 22.085
17.457, 6.902, -8.012, 17.488, 0.501, 0.020, 20.998, 22.152
17.592, 6.748, -7.655, 17.890, 0.477, 0.020, 21.117, 22.216
17.724, 6.603, -7.295, 17.992, 0.453, 0.020, 21.235, 22.275
17.853, 6.464, -6.939, 17.773, 0.430, 0.020, 21.352, 22.330
17.980, 6.332, -6.595, 17.236, 0.406, 0.020, 21.468, 22.382
18.104, 6.207, -6.267, 16.397, 0.383, 0.020, 21.582, 22.430
18.226, 6.087, -5.961, 15.291, 0.360, 0.020, 21.696, 22.474
18.345, 5.974, -5.681, 13.963, 0.338, 0.020, 21.808, 22.515
18.462, 5.865, -5.432, 12.467, 0.316, 0.020, 21.919, 22.552
18.578, 5.761, -5.215, 10.863, 0.295, 0.020, 22.029, 22.587
18.691, 5.660, -5.031, 9.206, 0.275, 0.020, 22.137, 22.619
18.802, 5.563, -4.880, 7.551, 0.255, 0.020, 22.245, 22.648
18.911, 5.467, -4.761, 5.944, 0.236, 0.020, 22.351, 22.674
19.019, 5.374, -4.672, 4.420, 0.218, 0.020, 22.456, 22.699
19.124, 5.282, -4.612, 3.008, 0.201, 0.020, 22.559, 22.721
19.228, 5.190, -4.578, 1.727, 0.184, 0.020, 22.661, 22.740
19.330, 5.099, -4.566, 0.587, 0.169, 0.020, 22.761, 22.758
19.430, 5.007, -4.574, -0.411, 0.154, 0.020, 22.860, 22.774
19.529, 4.915, -4.600, -1.267, 0.141, 0.020, 22.957, 22.789
19.625, 4.823, -4.639, -1.990, 0.128, 0.020, 23.053, 22.802
19.720, 4.729, -4.691, -2.589, 0.116, 0.020, 23.147, 22.813
19.812, 4.634, -4.753, -3.077, 0.105, 0.020, 23.239, 22.823
19.903, 4.537, -4.822, -3.465, 0.094, 0.020, 23.329, 22.832
19.992, 4.439, -4.897, -3.766, 0.084, 0.020, 23.418, 22.840
20.079, 4.340, -4.977, -3.993, 0.075, 0.020, 23.504, 22.847
20.163, 4.239, -5.060, -4.156, 0.067, 0.020, 23.589, 22.853
20.246, 4.136, -5.146, -4.266, 0.060, 0.020, 23.671, 22.859
20.327, 4.031, -5.232, -4.333, 0.053, 0.020, 23.752, 22.863
20.405, 3.925, -5.320, -4.365, 0.046, 0.020, 23.830, 22.867
20.482, 3.816, -5.407, -4.367, 0.040, 0.020, 23.906, 22.870
20.556, 3.707, -5.494, -4.346, 0.035, 0.020, 23.980, 22.873
20.628, 3.595, -5.580, -4.307, 0.030, 0.020, 24.052, 22.875
20.697, 3.482, -5.665, -4.253, 0.026, 0.020, 24.122, 22.877
20.765, 3.367, -5.749, -4.187, 0.022, 0.020, 24.189, 22.879
20.830, 3.250, -5.831, -4.113, 0.019, 0.020, 24.254, 22.880
20.892, 3.132, -5.912, -4.030, 0.016, 0.020, 24.317, 22.881
20.952, 3.012, -5.990, -3.941, 0.013, 0.020, 24.377, 22.882
21.010, 2.891, -6.067, -3.846, 0.011, 0.020, 24.435, 22.883
21.066, 2.768, -6.142, -3.745, 0.009, 0.020, 24.490, 22.883
21.119, 2.644, -6.215, -3.640, 0.007, 0.020, 24.543, 22.884
21.169, 2.518, -6.286, -3.529, 0.006, 0.020, 24.593, 22.884
21.217, 2.391, -6.354, -3.412, 0.004, 0.020, 24.641, 22.884
21.262, 2.262, -6.420, -3.289, 0.003, 0.020, 24.687, 22.885
21.305, 2.133, -6.483, -3.160, 0.003, 0.020, 24.729, 22.885
21.345, 2.002, -6.543, -3.024, 0.002, 0.020, 24.769, 22.885
21.382, 1.870, -6.601, -2.881, 0.001, 0.020, 24.807, 22.885
21.417, 1.737, -6.656, -2.730, 0.001, 0.020, 24.841, 22.885
21.449, 1.603, -6.707, -2.572, 0.001, 0.020, 24.873, 22.885
21.478, 1.467, -6.755, -2.406, 0.000, 0.020, 24.903, 22.885
21.505, 1.331, -6.800, -2.231, 0.000, 0.020, 24.929, 22.885
21.529, 1.195, -6.841, -2.049, 0.000, 0.020, 24.953, 22.885
21.550, 1.057, -6.878, -1.859, 0.000, 0.020, 24.974, 22.885
21.568, 0.919, -6.911, -1.662, 0.000, 0.020, 24.993, 22.885
23.798, 111.500, 5529.059, 276798.492, 3.142, 0.020, 24.992, 25.115
23.811, 0.640, -5542.985, -553602.178, 3.142, 0.020, 24.979, 25.115
23.821, 0.500, -6.995, 276799.480, 3.142, 0.020, 24.969, 25.115
23.828, 0.360, -7.002, -0.333, 3.142, 0.020, 24.962, 25.115
23.833, 0.220, -7.006, -0.197, 3.142, 0.020, 24.957, 25.115
23.833, 0.000, -11.013, -200.349, 3.142, 0.020, 24.957, 25.115
23.840, 0.360, 18.023, 1451.800, 3.142, 0.020, 24.950, 25.115
23.850, 0.501, 7.013, -550.524, 3.142, 0.020, 24.940, 25.115
23.863, 0.641, 7.015, 0.109, 3.142, 0.020, 24.927, 25.115
23.878, 0.781, 7.016, 0.044, 3.142, 0.020, 24.911, 25.115
23.897, 0.922, 7.014, -0.090, 3.142, 0.020, 24.893, 25.115
23.918, 1.062, 7.008, -0.303, 3.142, 0.020, 24.872, 25.115
23.942, 1.202, 6.996, -0.609, 3.142, 0.020, 24.848, 25.115
23.969, 1.341, 6.975, -1.015, 3.142, 0.020, 24.821, 25.115
23.998, 1.480, 6.945, -1.529, 3.142, 0.020, 24.791, 25.115
24.031, 1.618, 6.902, -2.155, 3.142, 0.020, 24.759, 25.115
24.066, 1.755, 6.844, -2.898, 3.142, 0.020, 24.724, 25.115
24.104, 1.890, 6.769, -3.756, 3.141, 0.020, 24.686, 25.115
24.144, 2.024, 6.674, -4.728, 3.141, 0.020, 24.646, 25.115
24.187, 2.155, 6.558, -5.808, 3.141, 0.020, 24.603, 25.115
24.233, 2.283, 6.418, -6.989, 3.140, 0.020, 24.557, 25.115
24.281, 2.408, 6.253, -8.261, 3.139, 0.020, 24.509, 25.115
24.332, 2.530, 6.061, -9.611, 3.138, 0.020, 24.458, 25.115
24.385, 2.646, 5.840, -11.023, 3.136, 0.020, 24.405, 25.116
24.440, 2.758, 5.591, -12.479, 3.134, 0.020, 24.350, 25.116
24.497, 2.864, 5.312, -13.957, 3.131, 0.020, 24.293, 25.116
24.556, 2.965, 5.003, -15.431, 3.128, 0.020, 24.233, 25.117
24.618, 3.058, 4.666, -16.868, 3.123, 0.020, 24.172, 25.118
24.680, 3.144, 4.301, -18.227, 3.118, 0.020, 24.109, 25.119
24.745, 3.222, 3.912, -19.457, 3.112, 0.020, 24.045, 25.121
24.811, 3.292, 3.502, -20.490, 3.104, 0.020, 23.979, 25.123
24.878, 3.354, 3.077, -21.237, 3.095, 0.020, 23.912, 25.126
24.946, 3.407, 2.646, -21.580, 3.084, 0.020, 23.844, 25.130
25.015, 3.451, 2.218, -21.367, 3.072, 0.020, 23.775, 25.134
25.085, 3.487, 1.810, -20.407, 3.058, 0.020, 23.706, 25.139
25.155, 3.516, 1.441, -18.463, 3.041, 0.020, 23.636, 25.146
25.226, 3.539, 1.136, -15.258, 3.023, 0.020, 23.565, 25.154
25.297, 3.557, 0.926, -10.489, 3.003, 0.020, 23.495, 25.163
25.364, 3.370, -9.374, -514.993, 2.981, 0.020, 23.428, 25.173
25.428, 3.197, -8.636, 36.913, 2.959, 0.020, 23.365, 25.184
25.489, 3.039, -7.891, 37.219, 2.937, 0.020, 23.305, 25.195
25.547, 2.896, -7.163, 36.398, 2.915, 0.020, 23.249, 25.208
25.602, 2.767, -6.473, 34.522, 2.893, 0.020, 23.195, 25.221
25.655, 2.650, -5.838, 31.731, 2.871, 0.020, 23.144, 25.234
25.706, 2.544, -5.274, 28.217, 2.850, 0.020, 23.095, 25.248
25.755, 2.448, -4.790, 24.205, 2.830, 0.020, 23.048, 25.263
25.802, 2.361, -4.391, 19.926, 2.810, 0.020, 23.003, 25.278
25.848, 2.279, -4.079, 15.594, 2.792, 0.020, 22.961, 25.293
25.892, 2.202, -3.851, 11.394, 2.775, 0.020, 22.919, 25.309
25.935, 2.128, -3.702, 7.469, 2.759, 0.020, 22.880, 25.324
25.976, 2.056, -3.624, 3.915, 2.744, 0.020, 22.842, 25.340
26.015, 1.983, -3.608, 0.790, 2.730, 0.020, 22.805, 25.355
26.053, 1.910, -3.646, -1.885, 2.718, 0.020, 22.770, 25.371
26.090, 1.836, -3.728, -4.112, 2.707, 0.020, 22.737, 25.386
26.125, 1.759, -3.846, -5.915, 2.697, 0.020, 22.705, 25.401
26.159, 1.679, -3.993, -7.326, 2.688, 0.020, 22.675, 25.416
26.191, 1.596, -4.160, -8.383, 2.680, 0.020, 22.646, 25.430
26.221, 1.509, -4.343, -9.124, 2.673, 0.020, 22.619, 25.443
26.249, 1.418, -4.535, -9.586, 2.667, 0.020, 22.594, 25.456
26.276, 1.324, -4.731, -9.801, 2.661, 0.020, 22.570, 25.468
26.300, 1.225, -4.927, -9.797, 2.657, 0.020, 22.549, 25.480
26.323, 1.123, -5.118, -9.599, 2.653, 0.020, 22.529, 25.490
26.343, 1.017, -5.303, -9.226, 2.650, 0.020, 22.511, 25.500
26.361, 0.907, -5.477, -8.699, 2.647, 0.020, 22.495, 25.508
26.377, 0.794, -5.638, -8.031, 2.645, 0.020, 22.481, 25.516
26.391, 0.679, -5.782, -7.238, 2.643, 0.020, 22.469, 25.523
26.402, 0.561, -5.909, -6.334, 2.641, 0.020, 22.459, 25.528
26.411, 0.440, -6.016, -5.335, 2.640, 0.020, 22.451, 25.532
26.417, 0.318, -6.101, -4.256, 2.640, 0.020, 22.446, 25.535
26.421, 0.195, -6.163, -3.112, 2.639, 0.020, 22.442, 25.537
26.423, 0.071, -6.202, -1.922, 2.639, 0.020, 22.441, 25.538
26.424, 0.053, -0.888, 265.693, 2.639, 0.020, 22.442, 25.537
26.427, 0.177, 6.205, 354.634, 2.639, 0.020, 22.445, 25.536
