position,velocity,acceleration,jerk,heading,dt,x,y
0.000, 0.000, 0.000, 0.000, 0.000, 0.020, 5.500, 18.469
0.003, 0.140, 7.000, 350.000, 0.000, 0.020, 5.503, 18.469
0.008, 0.280, 7.000, 0.000, 0.000, 0.020, 5.508, 18.469
0.017, 0.420, 7.000, -0.000, 0.000, 0.020, 5.517, 18.469
0.028, 0.560, 7.000, 0.000, 0.000, 0.020, 5.528, 18.469
0.042, 0.700, 7.000, -0.000, 0.000, 0.020, 5.542, 18.469
0.059, 0.840, 7.000, 0.000, 0.000, 0.020, 5.559, 18.469
0.078, 0.980, 7.000, -0.000, 0.000, 0.020, 5.578, 18.469
0.101, 1.120, 7.000, 0.000, 0.000, 0.020, 5.601, 18.469
0.126, 1.260, 7.000, 0.000, 0.000, 0.020, 5.626, 18.469
0.154, 1.400, 7.000, -0.000, 0.000, 0.020, 5.654, 18.469
0.185, 1.540, 7.000, 0.000, 0.000, 0.020, 5.685, 18.469
0.218, 1.680, 7.000, 0.000, 0.000, 0.020, 5.718, 18.469
0.255, 1.820, 7.000, -0.000, 0.000, 0.020, 5.755, 18.469
0.294, 1.960, 7.000, 0.000, 0.000, 0.020, 5.794, 18.469
0.336, 2.100, 7.000, 0.000, 0.000, 0.020, 5.836, 18.469
0.381, 2.240, 7.000, -0.000, 0.000, 0.020, 5.881, 18.469
0.428, 2.380, 7.000, 0.000, 0.000, 0.020, 5.928, 18.469
0.479, 2.520, 7.000, -0.000, 0.000, 0.020, 5.979, 18.469
0.532, 2.660, 7.000, 0.000, 0.000, 0.020, 6.032, 18.469
0.588, 2.800, 7.000, -0.000, 0.000, 0.020, 6.088, 18.469
0.647, 2.940, 7.000, -0.000, 0.000, 0.020, 6.147, 18.469
0.708, 3.080, 7.000, 0.000, 0.000, 0.020, 6.208, 18.469
0.773, 3.220, 7.000, -0.000, 0.000, 0.020, 6.273, 18.469
0.840, 3.360, 7.000, 0.000, 0.000, 0.020, 6.340, 18.469
0.910, 3.500, 7.000, -0.000, 0.000, 0.020, 6.410, 18.469
0.983, 3.640, 7.000, 0.000, 0.000, 0.020, 6.483, 18.469
1.058, 3.780, 7.000, 0.000, 0.000, 0.020, 6.558, 18.469
1.137, 3.920, 7.000, -0.000, 0.000, 0.020, 6.637, 18.469
1.217, 4.000, 4.000, -150.000, 0.000, 0.020, 6.717, 18.469
1.297, 4.000, 0.000, -200.000, 0.000, 0.020, 6.797, 18.469
1.377, 4.000, 0.000, 0.000, 0.000, 0.020, 6.877, 18.469
1.457, 4.000, 0.000, 0.000, 0.000, 0.020, 6.957, 18.469
1.537, 4.000, -0.000, -0.000, 0.000, 0.020, 7.037, 18.469
1.617, 4.000, 0.000, 0.000, 0.000, 0.020, 7.117, 18.469
1.697, 4.000, 0.000, -0.000, 0.000, 0.020, 7.197, 18.469
1.777, 4.000, 0.000, 0.000, 0.000, 0.020, 7.277, 18.469
1.857, 4.000, 0.000, 0.000, 0.000, 0.020, 7.357, 18.469
1.937, 4.000, 0.000, 0.000, 0.000, 0.020, 7.437, 18.469
2.017, 4.000, 0.000, 0.000, 0.000, 0.020, 7.517, 18.469
2.097, 4.000, 0.000, 0.000, 0.000, 0.020, 7.597, 18.469
2.177, 4.000, 0.000, 0.000, 0.000, 0.020, 7.677, 18.469
2.257, 4.000, 0.000, 0.000, 0.000, 0.020, 7.757, 18.469
2.337, 4.000, 0.000, 0.000, 0.000, 0.020, 7.837, 18.469
2.417, 4.000, 0.000, -0.000, 0.000, 0.020, 7.917, 18.469
2.497, 4.000, 0.000, 0.000, 0.000, 0.020, 7.997, 18.469
2.577, 4.000, 0.000, 0.000, 0.000, 0.020, 8.077, 18.469
2.657, 4.000, 0.000, 0.000, 0.000, 0.020, 8.157, 18.469
2.737, 4.000, 0.000, 0.000, 0.000, 0.020, 8.237, 18.469
2.817, 4.000, 0.000, 0.000, 0.000, 0.020, 8.317, 18.469
2.897, 4.000, 0.000, 0.000, 0.000, 0.020, 8.397, 18.469
2.977, 4.000, 0.000, 0.000, 0.000, 0.020, 8.477, 18.469
3.057, 4.000, -0.000, -0.000, 0.000, 0.020, 8.557, 18.469
3.137, 4.000, 0.000, 0.000, 0.000, 0.020, 8.637, 18.469
3.217, 4.000, 0.000, -0.000, 0.000, 0.020, 8.717, 18.469
3.297, 4.000, 0.000, 0.000, 0.000, 0.020, 8.797, 18.469
3.377, 4.000, 0.000, 0.000, 0.000, 0.020, 8.877, 18.469
3.457, 4.000, 0.000, 0.000, 0.000, 0.020, 8.957, 18.469
3.537, 4.000, 0.000, 0.000, 0.000, 0.020, 9.037, 18.469
3.617, 4.000, 0.000, 0.000, 0.000, 0.020, 9.117, 18.469
3.697, 4.000, 0.000, 0.000, 0.000, 0.020, 9.197, 18.469
3.777, 4.000, 0.000, 0.000, 0.000, 0.020, 9.277, 18.469
3.857, 4.000, 0.000, 0.000, 0.000, 0.020, 9.357, 18.469
3.937, 4.000, 0.000, 0.000, 0.000, 0.020, 9.437, 18.469
4.017, 4.000, 0.000, 0.000, 0.000, 0.020, 9.517, 18.469
4.097, 4.000, 0.000, 0.000, 0.000, 0.020, 9.597, 18.469
4.177, 4.000, 0.000, 0.000, 0.000, 0.020, 9.677, 18.469
4.257, 4.000, 0.000, 0.000, 0.000, 0.020, 9.757, 18.469
4.337, 4.000, 0.000, 0.000, 0.000, 0.020, 9.837, 18.469
4.417, 4.000, 0.000, 0.000, 0.000, 0.020, 9.917, 18.469
4.417, 0.000, -200.000, -10000.000, 0.000, 0.020, 9.917, 18.469
4.500, 4.140, 207.000, 20350.000, 0.000, 0.020, 10.000, 18.469
4.585, 4.266, 6.308, -10034.585, 0.000, 0.020, 10.085, 18.469
4.672, 4.377, 5.538, -38.493, 0.001, 0.020, 10.172, 18.469
4.762, 4.486, 5.440, -4.909, 0.002, 0.020, 10.262, 18.469
4.854, 4.593, 5.342, -4.935, 0.004, 0.020, 10.354, 18.470
4.948, 4.697, 5.242, -4.970, 0.007, 0.020, 10.448, 18.470
5.044, 4.800, 5.142, -5.012, 0.010, 0.020, 10.544, 18.471
5.142, 4.901, 5.041, -5.058, 0.014, 0.020, 10.642, 18.472
5.242, 5.000, 4.939, -5.104, 0.019, 0.020, 10.742, 18.474
5.344, 5.097, 4.836, -5.147, 0.024, 0.020, 10.844, 18.476
5.448, 5.191, 4.732, -5.179, 0.030, 0.020, 10.948, 18.479
5.553, 5.284, 4.628, -5.192, 0.037, 0.020, 11.053, 18.482
5.661, 5.374, 4.525, -5.176, 0.045, 0.020, 11.161, 18.487
5.770, 5.463, 4.422, -5.120, 0.054, 0.020, 11.270, 18.492
5.881, 5.549, 4.322, -5.010, 0.064, 0.020, 11.381, 18.499
5.994, 5.634, 4.226, -4.827, 0.075, 0.020, 11.493, 18.507
6.108, 5.716, 4.135, -4.555, 0.087, 0.020, 11.607, 18.516
6.224, 5.797, 4.051, -4.171, 0.100, 0.020, 11.722, 18.527
6.342, 5.877, 3.978, -3.651, 0.114, 0.020, 11.839, 18.539
6.461, 5.955, 3.919, -2.973, 0.129, 0.020, 11.957, 18.554
6.581, 6.033, 3.876, -2.111, 0.145, 0.020, 12.077, 18.570
6.704, 6.110, 3.856, -1.043, 0.163, 0.020, 12.198, 18.589
6.827, 6.187, 3.861, 0.249, 0.181, 0.020, 12.320, 18.610
6.953, 6.265, 3.896, 1.780, 0.201, 0.020, 12.443, 18.634
7.080, 6.344, 3.967, 3.550, 0.222, 0.020, 12.567, 18.661
7.208, 6.426, 4.078, 5.551, 0.244, 0.020, 12.692, 18.690
7.338, 6.511, 4.233, 7.756, 0.266, 0.020, 12.818, 18.723
7.470, 6.599, 4.436, 10.120, 0.290, 0.020, 12.945, 18.759
7.604, 6.693, 4.687, 12.579, 0.314, 0.020, 13.073, 18.799
7.740, 6.793, 4.988, 15.049, 0.340, 0.020, 13.201, 18.843
7.878, 6.900, 5.337, 17.432, 0.366, 0.020, 13.331, 18.890
8.018, 7.014, 5.729, 19.618, 0.392, 0.020, 13.461, 18.942
8.161, 7.137, 6.159, 21.500, 0.418, 0.020, 13.592, 18.999
8.306, 7.270, 6.619, 22.979, 0.445, 0.020, 13.724, 19.059
8.455, 7.412, 7.098, 23.974, 0.472, 0.020, 13.857, 19.125
8.606, 7.563, 7.587, 24.436, 0.498, 0.020, 13.991, 19.196
8.760, 7.725, 8.074, 24.350, 0.524, 0.020, 14.126, 19.271
8.918, 7.896, 8.549, 23.739, 0.550, 0.020, 14.261, 19.352
9.080, 8.076, 9.002, 22.659, 0.575, 0.020, 14.398, 19.438
9.245, 8.265, 9.426, 21.197, 0.599, 0.020, 14.536, 19.530
9.414, 8.461, 9.815, 19.457, 0.622, 0.020, 14.674, 19.627
9.588, 8.664, 10.166, 17.553, 0.643, 0.020, 14.814, 19.729
9.765, 8.874, 10.478, 15.596, 0.664, 0.020, 14.955, 19.837
9.947, 9.089, 10.752, 13.691, 0.683, 0.020, 15.097, 19.951
10.133, 9.309, 10.990, 11.923, 0.701, 0.020, 15.240, 20.069
10.324, 9.532, 11.198, 10.362, 0.717, 0.020, 15.385, 20.194
10.519, 9.760, 11.379, 9.056, 0.732, 0.020, 15.531, 20.323
10.719, 9.991, 11.539, 8.039, 0.745, 0.020, 15.679, 20.457
10.923, 10.225, 11.686, 7.325, 0.756, 0.020, 15.828, 20.597
11.132, 10.461, 11.824, 6.918, 0.766, 0.020, 15.980, 20.741
11.344, 10.565, 5.204, -331.015, 0.774, 0.020, 16.131, 20.889
11.557, 10.668, 5.146, -2.907, 0.780, 0.020, 16.284, 21.038
11.772, 10.770, 5.098, -2.417, 0.784, 0.020, 16.436, 21.190
11.990, 10.871, 5.062, -1.775, 0.786, 0.020, 16.590, 21.344
12.209, 10.972, 5.041, -1.031, 0.787, 0.020, 16.745, 21.499
12.428, 10.931, -2.041, -354.133, 0.786, 0.020, 16.899, 21.654
12.646, 10.887, -2.220, -8.957, 0.783, 0.020, 17.054, 21.808
12.863, 10.839, -2.384, -8.181, 0.778, 0.020, 17.208, 21.960
13.078, 10.788, -2.535, -7.553, 0.772, 0.020, 17.362, 22.111
13.293, 10.735, -2.677, -7.094, 0.764, 0.020, 17.516, 22.260
13.507, 10.679, -2.813, -6.815, 0.755, 0.020, 17.671, 22.407
13.719, 10.620, -2.948, -6.728, 0.744, 0.020, 17.827, 22.552
13.930, 10.558, -3.085, -6.839, 0.732, 0.020, 17.983, 22.694
14.140, 10.493, -3.228, -7.148, 0.718, 0.020, 18.140, 22.833
14.348, 10.426, -3.381, -7.653, 0.703, 0.020, 18.298, 22.969
14.556, 10.355, -3.547, -8.344, 0.687, 0.020, 18.457, 23.102
14.761, 10.280, -3.732, -9.205, 0.670, 0.020, 18.617, 23.231
14.965, 10.202, -3.936, -10.210, 0.652, 0.020, 18.778, 23.356
15.168, 10.118, -4.162, -11.326, 0.632, 0.020, 18.940, 23.477
15.368, 10.030, -4.412, -12.508, 0.612, 0.020, 19.103, 23.594
15.567, 9.936, -4.687, -13.707, 0.591, 0.020, 19.267, 23.707
15.764, 9.837, -4.984, -14.864, 0.569, 0.020, 19.432, 23.815
15.958, 9.731, -5.302, -15.917, 0.547, 0.020, 19.597, 23.918
16.151, 9.618, -5.638, -16.807, 0.524, 0.020, 19.762, 24.016
16.341, 9.498, -5.988, -17.477, 0.501, 0.020, 19.928, 24.109
16.528, 9.371, -6.346, -17.880, 0.477, 0.020, 20.093, 24.197
16.713, 9.237, -6.705, -17.981, 0.453, 0.020, 20.258, 24.280
16.895, 9.096, -7.060, -17.763, 0.430, 0.020, 20.423, 24.358
17.074, 8.948, -7.405, -17.227, 0.406, 0.020, 20.586, 24.430
17.249, 8.793, -7.733, -16.389, 0.383, 0.020, 20.749, 24.498
17.422, 8.632, -8.038, -15.284, 0.360, 0.020, 20.909, 24.561
17.591, 8.466, -8.318, -13.957, 0.338, 0.020, 21.069, 24.618
17.757, 8.295, -8.567, -12.463, 0.316, 0.020, 21.226, 24.672
17.920, 8.119, -8.784, -10.860, 0.295, 0.020, 21.381, 24.721
18.079, 7.940, -8.968, -9.205, 0.275, 0.020, 21.533, 24.765
18.234, 7.757, -9.119, -7.552, 0.255, 0.020, 21.683, 24.806
18.385, 7.572, -9.238, -5.945, 0.236, 0.020, 21.830, 24.843
18.533, 7.386, -9.327, -4.422, 0.218, 0.020, 21.974, 24.876
18.677, 7.198, -9.387, -3.011, 0.201, 0.020, 22.114, 24.906
18.817, 7.010, -9.421, -1.730, 0.184, 0.020, 22.252, 24.933
18.953, 6.821, -9.433, -0.590, 0.169, 0.020, 22.386, 24.957
19.086, 6.633, -9.425, 0.407, 0.154, 0.020, 22.517, 24.978
19.215, 6.445, -9.400, 1.264, 0.141, 0.020, 22.645, 24.997
19.340, 6.257, -9.360, 1.987, 0.128, 0.020, 22.769, 25.014
19.462, 6.071, -9.308, 2.586, 0.116, 0.020, 22.889, 25.028
19.579, 5.886, -9.247, 3.074, 0.105, 0.020, 23.006, 25.041
19.693, 5.703, -9.178, 3.462, 0.094, 0.020, 23.120, 25.053
19.804, 5.521, -9.102, 3.763, 0.084, 0.020, 23.230, 25.062
19.911, 5.340, -9.022, 3.990, 0.075, 0.020, 23.336, 25.071
20.014, 5.161, -8.939, 4.154, 0.067, 0.020, 23.439, 25.078
20.113, 4.984, -8.854, 4.264, 0.060, 0.020, 23.539, 25.085
20.210, 4.809, -8.768, 4.332, 0.053, 0.020, 23.635, 25.090
20.302, 4.635, -8.680, 4.363, 0.046, 0.020, 23.727, 25.095
20.392, 4.464, -8.593, 4.365, 0.040, 0.020, 23.816, 25.098
20.477, 4.293, -8.506, 4.345, 0.035, 0.020, 23.902, 25.102
20.560, 4.125, -8.420, 4.306, 0.030, 0.020, 23.985, 25.104
20.639, 3.958, -8.335, 4.252, 0.026, 0.020, 24.064, 25.107
20.715, 3.793, -8.251, 4.187, 0.022, 0.020, 24.140, 25.108
20.788, 3.630, -8.169, 4.112, 0.019, 0.020, 24.212, 25.110
20.857, 3.468, -8.088, 4.029, 0.016, 0.020, 24.282, 25.111
20.923, 3.308, -8.010, 3.940, 0.013, 0.020, 24.348, 25.112
20.986, 3.149, -7.933, 3.845, 0.011, 0.020, 24.411, 25.113
21.046, 2.992, -7.858, 3.745, 0.009, 0.020, 24.471, 25.113
21.103, 2.836, -7.785, 3.639, 0.007, 0.020, 24.527, 25.114
21.156, 2.682, -7.714, 3.528, 0.006, 0.020, 24.581, 25.114
21.207, 2.529, -7.646, 3.412, 0.004, 0.020, 24.632, 25.114
21.254, 2.378, -7.580, 3.289, 0.003, 0.020, 24.679, 25.115
21.299, 2.227, -7.517, 3.160, 0.003, 0.020, 24.724, 25.115
21.341, 2.078, -7.457, 3.024, 0.002, 0.020, 24.765, 25.115
21.379, 1.930, -7.399, 2.881, 0.001, 0.020, 24.804, 25.115
21.415, 1.783, -7.344, 2.730, 0.001, 0.020, 24.839, 25.115
21.448, 1.637, -7.293, 2.572, 0.001, 0.020, 24.872, 25.115
21.477, 1.493, -7.245, 2.406, 0.000, 0.020, 24.902, 25.115
21.504, 1.349, -7.200, 2.231, 0.000, 0.020, 24.929, 25.115
21.529, 1.205, -7.159, 2.049, 0.000, 0.020, 24.953, 25.115
21.550, 1.063, -7.122, 1.859, 0.000, 0.020, 24.974, 25.115
21.568, 0.921, -7.089, 1.662, 0.000, 0.020, 24.993, 25.115
23.798, 111.500, 5528.943, 276801.592, 3.142, 0.020, 24.992, 22.885
23.811, 0.640, -5543.017, -553597.990, 3.142, 0.020, 24.979, 22.885
23.821, 0.500, -7.005, 276800.604, 3.142, 0.020, 24.969, 22.885
23.828, 0.360, -6.998, 0.333, 3.142, 0.020, 24.962, 22.885
23.833, 0.220, -6.994, 0.197, 3.142, 0.020, 24.957, 22.885
23.833, 0.000, -10.987, -199.651, 3.142, 0.020, 24.957, 22.885
23.840, 0.360, 17.977, 1448.200, 3.142, 0.020, 24.950, 22.885
23.850, 0.499, 6.987, -549.476, 3.142, 0.020, 24.940, 22.885
23.863, 0.639, 6.985, -0.109, 3.142, 0.020, 24.927, 22.885
23.878, 0.779, 6.984, -0.044, 3.142, 0.020, 24.912, 22.885
23.896, 0.918, 6.986, 0.090, 3.142, 0.020, 24.893, 22.885
23.918, 1.058, 6.992, 0.303, 3.142, 0.020, 24.872, 22.885
23.942, 1.198, 7.004, 0.609, 3.142, 0.020, 24.848, 22.885
23.968, 1.339, 7.025, 1.015, 3.142, 0.020, 24.821, 22.885
23.998, 1.480, 7.055, 1.529, 3.142, 0.020, 24.792, 22.885
24.030, 1.622, 7.098, 2.155, 3.142, 0.020, 24.759, 22.885
24.066, 1.765, 7.156, 2.898, 3.142, 0.020, 24.724, 22.885
24.104, 1.910, 7.231, 3.756, 3.141, 0.020, 24.686, 22.885
24.145, 2.056, 7.326, 4.728, 3.141, 0.020, 24.645, 22.885
24.189, 2.205, 7.442, 5.808, 3.141, 0.020, 24.601, 22.885
24.236, 2.357, 7.582, 6.989, 3.140, 0.020, 24.554, 22.885
24.286, 2.512, 7.747, 8.261, 3.139, 0.020, 24.503, 22.885
24.340, 2.670, 7.939, 9.610, 3.138, 0.020, 24.450, 22.885
24.397, 2.834, 8.160, 11.022, 3.136, 0.020, 24.393, 22.886
24.457, 3.002, 8.409, 12.478, 3.134, 0.020, 24.333, 22.886
24.520, 3.176, 8.688, 13.956, 3.131, 0.020, 24.270, 22.887
24.587, 3.355, 8.997, 15.430, 3.128, 0.020, 24.203, 22.887
24.658, 3.542, 9.334, 16.866, 3.123, 0.020, 24.132, 22.888
24.733, 3.736, 9.699, 18.225, 3.118, 0.020, 24.057, 22.890
24.812, 3.938, 10.088, 19.454, 3.112, 0.020, 23.978, 22.892
24.895, 4.148, 10.498, 20.486, 3.104, 0.020, 23.895, 22.895
24.982, 4.366, 10.922, 21.231, 3.095, 0.020, 23.808, 22.899
25.074, 4.593, 11.354, 21.572, 3.084, 0.020, 23.716, 22.903
25.170, 4.829, 11.781, 21.358, 3.072, 0.020, 23.620, 22.909
25.272, 5.073, 12.189, 20.396, 3.058, 0.020, 23.519, 22.917
25.378, 5.324, 12.558, 18.449, 3.041, 0.020, 23.413, 22.927
25.490, 5.581, 12.863, 15.243, 3.023, 0.020, 23.302, 22.939
25.607, 5.843, 13.072, 10.473, 3.003, 0.020, 23.186, 22.954
25.722, 5.750, -4.627, -884.936, 2.981, 0.020, 23.072, 22.971
25.835, 5.643, -5.365, -36.901, 2.959, 0.020, 22.961, 22.990
25.945, 5.521, -6.109, -37.208, 2.937, 0.020, 22.853, 23.012
26.053, 5.384, -6.837, -36.387, 2.915, 0.020, 22.748, 23.035
26.157, 5.233, -7.527, -34.513, 2.893, 0.020, 22.646, 23.059
26.259, 5.070, -8.161, -31.723, 2.871, 0.020, 22.548, 23.085
26.357, 4.896, -8.725, -28.212, 2.850, 0.020, 22.454, 23.113
26.451, 4.711, -9.210, -24.202, 2.830, 0.020, 22.364, 23.141
26.541, 4.519, -9.608, -19.924, 2.810, 0.020, 22.278, 23.169
26.628, 4.321, -9.920, -15.595, 2.792, 0.020, 22.197, 23.198
26.710, 4.118, -10.148, -11.396, 2.775, 0.020, 22.119, 23.227
26.788, 3.912, -10.297, -7.472, 2.759, 0.020, 22.047, 23.256
26.862, 3.704, -10.376, -3.918, 2.744, 0.020, 21.978, 23.284
26.932, 3.497, -10.392, -0.793, 2.730, 0.020, 21.914, 23.311
26.998, 3.290, -10.354, 1.881, 2.718, 0.020, 21.854, 23.338
27.060, 3.084, -10.272, 4.109, 2.707, 0.020, 21.798, 23.364
27.117, 2.881, -10.153, 5.912, 2.697, 0.020, 21.745, 23.388
27.171, 2.681, -10.007, 7.323, 2.688, 0.020, 21.697, 23.411
27.221, 2.484, -9.839, 8.380, 2.680, 0.020, 21.653, 23.433
27.266, 2.291, -9.657, 9.122, 2.673, 0.020, 21.612, 23.454
27.309, 2.102, -9.465, 9.584, 2.667, 0.020, 21.574, 23.473
27.347, 1.916, -9.269, 9.799, 2.661, 0.020, 21.540, 23.491
27.382, 1.735, -9.073, 9.796, 2.657, 0.020, 21.509, 23.507
27.413, 1.557, -8.881, 9.598, 2.653, 0.020, 21.482, 23.521
27.440, 1.383, -8.697, 9.226, 2.650, 0.020, 21.457, 23.534
27.465, 1.213, -8.523, 8.698, 2.647, 0.020, 21.436, 23.546
27.486, 1.046, -8.362, 8.030, 2.645, 0.020, 21.418, 23.556
27.503, 0.881, -8.218, 7.237, 2.643, 0.020, 21.402, 23.564
27.518, 0.719, -8.091, 6.334, 2.641, 0.020, 21.390, 23.571
27.529, 0.560, -7.984, 5.335, 2.640, 0.020, 21.380, 23.577
27.537, 0.402, -7.899, 4.255, 2.640, 0.020, 21.373, 23.580
27.542, 0.245, -7.837, 3.112, 2.639, 0.020, 21.368, 23.583
27.543, 0.089, -7.798, 1.922, 2.639, 0.020, 21.367, 23.584
27.545, 0.067, -1.112, 334.307, 2.639, 0.020, 21.368, 23.583
27.549, 0.223, 7.795, 445.366, 2.639, 0.020, 21.372, 23.581
