position,velocity,acceleration,jerk,heading,dt,x,y
0.000, 0.000, 0.000, 0.000, 0.000, 0.020, 5.500, 17.354
0.003, 0.160, 8.000, 0.000, 0.000, 0.020, 5.503, 17.354
0.010, 0.320, 8.000, 0.000, 0.000, 0.020, 5.510, 17.354
0.019, 0.480, 8.000, 0.000, 0.000, 0.020, 5.519, 17.354
0.032, 0.640, 8.000, 0.000, 0.000, 0.020, 5.532, 17.354
0.048, 0.800, 8.000, 0.000, 0.000, 0.020, 5.548, 17.354
0.067, 0.960, 8.000, 0.000, 0.000, 0.020, 5.567, 17.354
0.090, 1.120, 8.000, 0.000, 0.000, 0.020, 5.590, 17.354
0.115, 1.280, 8.000, 0.000, 0.000, 0.020, 5.615, 17.354
0.144, 1.440, 8.000, 0.000, 0.000, 0.020, 5.644, 17.354
0.176, 1.600, 8.000, 0.000, 0.000, 0.020, 5.676, 17.354
0.211, 1.760, 8.000, 0.000, 0.000, 0.020, 5.711, 17.354
0.250, 1.920, 8.000, 0.000, 0.000, 0.020, 5.750, 17.354
0.291, 2.080, 8.000, 0.000, 0.000, 0.020, 5.791, 17.354
0.336, 2.240, 8.000, 0.000, 0.000, 0.020, 5.836, 17.354
0.384, 2.400, 8.000, 0.000, 0.000, 0.020, 5.884, 17.354
0.435, 2.560, 8.000, 0.000, 0.000, 0.020, 5.935, 17.354
0.490, 2.720, 8.000, 0.000, 0.000, 0.020, 5.990, 17.354
0.547, 2.880, 8.000, 0.000, 0.000, 0.020, 6.047, 17.354
0.607, 3.000, 0.000, 0.000, 0.000, 0.020, 6.107, 17.354
0.667, 3.000, 0.000, 0.000, 0.000, 0.020, 6.167, 17.354
0.727, 3.000, 0.000, 0.000, 0.000, 0.020, 6.227, 17.354
0.787, 3.000, 0.000, 0.000, 0.000, 0.020, 6.287, 17.354
0.847, 3.000, 0.000, 0.000, 0.000, 0.020, 6.347, 17.354
0.907, 3.000, 0.000, 0.000, 0.000, 0.020, 6.407, 17.354
0.967, 3.000, 0.000, 0.000, 0.000, 0.020, 6.467, 17.354
1.027, 3.000, 0.000, 0.000, 0.000, 0.020, 6.527, 17.354
1.087, 3.000, 0.000, 0.000, 0.000, 0.020, 6.587, 17.354
1.147, 3.000, 0.000, 0.000, 0.000, 0.020, 6.647, 17.354
1.207, 3.000, 0.000, 0.000, 0.000, 0.020, 6.707, 17.354
1.267, 3.000, 0.000, 0.000, 0.000, 0.020, 6.767, 17.354
1.327, 3.000, 0.000, 0.000, 0.000, 0.020, 6.827, 17.354
1.387, 3.000, 0.000, 0.000, 0.000, 0.020, 6.887, 17.354
1.447, 3.000, 0.000, 0.000, 0.000, 0.020, 6.947, 17.354
1.507, 3.000, 0.000, 0.000, 0.000, 0.020, 7.007, 17.354
1.567, 3.000, 0.000, 0.000, 0.000, 0.020, 7.067, 17.354
1.627, 3.000, 0.000, 0.000, 0.000, 0.020, 7.127, 17.354
1.687, 3.000, 0.000, 0.000, 0.000, 0.020, 7.187, 17.354
1.747, 3.000, 0.000, 0.000, 0.000, 0.020, 7.247, 17.354
1.807, 3.000, 0.000, 0.000, 0.000, 0.020, 7.307, 17.354
1.867, 3.000, 0.000, 0.000, 0.000, 0.020, 7.367, 17.354
1.927, 3.000, 0.000, 0.000, 0.000, 0.020, 7.427, 17.354
1.987, 3.000, 0.000, 0.000, 0.000, 0.020, 7.487, 17.354
2.047, 3.000, 0.000, 0.000, 0.000, 0.020, 7.547, 17.354
2.107, 3.000, 0.000, 0.000, 0.000, 0.020, 7.607, 17.354
2.167, 3.000, 0.000, 0.000, 0.000, 0.020, 7.667, 17.354
2.227, 3.000, 0.000, 0.000, 0.000, 0.020, 7.727, 17.354
2.287, 3.000, 0.000, 0.000, 0.000, 0.020, 7.787, 17.354
2.347, 3.000, 0.000, 0.000, 0.000, 0.020, 7.847, 17.354
2.407, 3.000, 0.000, 0.000, 0.000, 0.020, 7.907, 17.354
2.467, 3.000, 0.000, 0.000, 0.000, 0.020, 7.967, 17.354
2.527, 3.000, 0.000, 0.000, 0.000, 0.020, 8.027, 17.354
2.587, 3.000, 0.000, 0.000, 0.000, 0.020, 8.087, 17.354
2.647, 3.000, 0.000, 0.000, 0.000, 0.020, 8.147, 17.354
2.707, 3.000, 0.000, 0.000, 0.000, 0.020, 8.207, 17.354
2.767, 3.000, 0.000, 0.000, 0.000, 0.020, 8.267, 17.354
2.827, 3.000, 0.000, 0.000, 0.000, 0.020, 8.327, 17.354
2.887, 3.000, 0.000, 0.000, 0.000, 0.020, 8.387, 17.354
2.947, 3.000, 0.000, 0.000, 0.000, 0.020, 8.447, 17.354
3.007, 3.000, 0.000, 0.000, 0.000, 0.020, 8.507, 17.354
3.067, 3.000, 0.000, 0.000, 0.000, 0.020, 8.567, 17.354
3.127, 3.000, 0.000, 0.000, 0.000, 0.020, 8.627, 17.354
3.187, 3.000, 0.000, 0.000, 0.000, 0.020, 8.687, 17.354
3.247, 3.000, 0.000, 0.000, 0.000, 0.020, 8.747, 17.354
3.307, 3.000, 0.000, 0.000, 0.000, 0.020, 8.807, 17.354
3.367, 3.000, 0.000, 0.000, 0.000, 0.020, 8.867, 17.354
3.427, 3.000, 0.000, 0.000, 0.000, 0.020, 8.927, 17.354
3.487, 3.000, 0.000, 0.000, 0.000, 0.020, 8.987, 17.354
3.547, 3.000, 0.000, 0.000, 0.000, 0.020, 9.047, 17.354
3.607, 3.000, 0.000, 0.000, 0.000, 0.020, 9.107, 17.354
3.667, 3.000, 0.000, 0.000, 0.000, 0.020, 9.167, 17.354
3.727, 3.000, 0.000, 0.000, 0.000, 0.020, 9.227, 17.354
3.787, 3.000, 0.000, 0.000, 0.000, 0.020, 9.287, 17.354
3.847, 3.000, 0.000, 0.000, 0.000, 0.020, 9.347, 17.354
3.907, 3.000, 0.000, 0.000, 0.000, 0.020, 9.407, 17.354
3.967, 3.000, 0.000, 0.000, 0.000, 0.020, 9.467, 17.354
4.027, 3.000, 0.000, 0.000, 0.000, 0.020, 9.527, 17.354
4.087, 3.000, 0.000, 0.000, 0.000, 0.020, 9.587, 17.354
4.147, 3.000, 0.000, 0.000, 0.000, 0.020, 9.647, 17.354
4.207, 3.000, 0.000, 0.000, 0.000, 0.020, 9.707, 17.354
4.267, 3.000, 0.000, 0.000, 0.000, 0.020, 9.767, 17.354
4.327, 3.000, 0.000, 0.000, 0.000, 0.020, 9.827, 17.354
4.387, 3.000, 0.000, 0.000, 0.000, 0.020, 9.887, 17.354
4.447, 3.000, 0.000, 0.000, 0.000, 0.020, 9.947, 17.354
4.447, 3.000, 0.000, 0.000, 0.000, 0.020, 9.947, 17.354
4.510, 3.160, 8.000, 0.000, 0.000, 0.020, 10.010, 17.354
4.577, 3.320, 8.000, 0.000, 0.000, 0.020, 10.077, 17.354
4.646, 3.480, 8.000, 0.000, 0.001, 0.020, 10.146, 17.354
4.719, 3.640, 8.000, 0.000, 0.002, 0.020, 10.219, 17.354
4.795, 3.800, 8.000, 0.000, 0.003, 0.020, 10.295, 17.354
4.874, 3.960, 8.000, 0.000, 0.005, 0.020, 10.374, 17.355
4.957, 4.120, 8.000, 0.000, 0.007, 0.020, 10.457, 17.355
5.042, 4.280, 8.000, 0.000, 0.010, 0.020, 10.542, 17.356
5.131, 4.440, 8.000, 0.000, 0.013, 0.020, 10.631, 17.357
5.223, 4.600, 8.000, 0.000, 0.017, 0.020, 10.723, 17.358
5.318, 4.760, 8.000, 0.000, 0.021, 0.020, 10.818, 17.360
5.417, 4.920, 8.000, 0.000, 0.027, 0.020, 10.917, 17.362
5.518, 5.080, 8.000, 0.000, 0.033, 0.020, 11.018, 17.365
5.623, 5.240, 8.000, 0.000, 0.039, 0.020, 11.123, 17.369
5.731, 5.400, 8.000, 0.000, 0.047, 0.020, 11.231, 17.374
5.842, 5.560, 8.000, 0.000, 0.055, 0.020, 11.342, 17.380
5.957, 5.720, 8.000, 0.000, 0.065, 0.020, 11.456, 17.386
6.074, 5.880, 8.000, 0.000, 0.075, 0.020, 11.573, 17.395
6.195, 6.040, 8.000, 0.000, 0.086, 0.020, 11.694, 17.404
6.319, 6.200, 8.000, 0.000, 0.098, 0.020, 11.817, 17.416
6.446, 6.360, 8.000, 0.000, 0.112, 0.020, 11.944, 17.429
6.577, 6.520, 8.000, 0.000, 0.126, 0.020, 12.073, 17.444
6.710, 6.680, 8.000, 0.000, 0.141, 0.020, 12.206, 17.462
6.847, 6.840, 8.000, 0.000, 0.158, 0.020, 12.341, 17.483
6.987, 7.000, 8.000, 0.000, 0.176, 0.020, 12.479, 17.506
7.130, 7.160, 8.000, 0.000, 0.195, 0.020, 12.620, 17.532
7.277, 7.320, 8.000, 0.000, 0.215, 0.020, 12.763, 17.562
7.426, 7.480, 8.000, 0.000, 0.236, 0.020, 12.909, 17.595
7.579, 7.640, 8.000, 0.000, 0.258, 0.020, 13.057, 17.633
7.735, 7.800, 8.000, 0.000, 0.281, 0.020, 13.208, 17.674
7.894, 7.960, 8.000, 0.000, 0.305, 0.020, 13.360, 17.720
8.057, 8.120, 8.000, 0.000, 0.330, 0.020, 13.514, 17.771
8.222, 8.280, 8.000, 0.000, 0.356, 0.020, 13.670, 17.827
8.391, 8.440, 8.000, 0.000, 0.382, 0.020, 13.828, 17.888
8.563, 8.600, 8.000, 0.000, 0.409, 0.020, 13.986, 17.954
8.738, 8.760, 8.000, 0.000, 0.435, 0.020, 14.146, 18.026
8.917, 8.920, 8.000, 0.000, 0.462, 0.020, 14.307, 18.103
9.098, 9.080, 8.000, 0.000, 0.489, 0.020, 14.468, 18.186
9.283, 9.240, 8.000, 0.000, 0.516, 0.020, 14.630, 18.275
9.471, 9.400, 8.000, 0.000, 0.542, 0.020, 14.793, 18.370
9.662, 9.560, 8.000, 0.000, 0.567, 0.020, 14.955, 18.471
9.857, 9.720, 8.000, 0.000, 0.592, 0.020, 15.118, 18.577
10.054, 9.880, 8.000, 0.000, 0.616, 0.020, 15.280, 18.689
10.255, 10.040, 8.000, 0.000, 0.638, 0.020, 15.443, 18.807
10.459, 10.200, 8.000, 0.000, 0.659, 0.020, 15.606, 18.931
10.666, 10.360, 8.000, 0.000, 0.679, 0.020, 15.768, 19.059
10.877, 10.520, 8.000, 0.000, 0.698, 0.020, 15.930, 19.193
11.090, 10.680, 8.000, 0.000, 0.715, 0.020, 16.093, 19.332
11.307, 10.840, 8.000, 0.000, 0.730, 0.020, 16.255, 19.475
11.527, 11.000, 8.000, 0.000, 0.744, 0.020, 16.418, 19.623
11.750, 11.160, 8.000, 0.000, 0.756, 0.020, 16.582, 19.775
11.977, 11.320, 8.000, 0.000, 0.766, 0.020, 16.746, 19.931
12.206, 11.480, 8.000, 0.000, 0.774, 0.020, 16.910, 20.091
12.436, 11.500, 0.000, 0.000, 0.780, 0.020, 17.074, 20.252
12.666, 11.500, 0.000, 0.000, 0.784, 0.020, 17.238, 20.414
12.896, 11.500, 0.000, 0.000, 0.787, 0.020, 17.400, 20.577
13.126, 11.500, 0.000, 0.000, 0.787, 0.020, 17.563, 20.740
13.356, 11.500, 0.000, 0.000, 0.785, 0.020, 17.725, 20.903
13.586, 11.500, 0.000, 0.000, 0.781, 0.020, 17.888, 21.065
13.813, 11.340, -8.000, 0.000, 0.776, 0.020, 18.050, 21.224
14.037, 11.180, -8.000, 0.000, 0.768, 0.020, 18.210, 21.380
14.257, 11.020, -8.000, 0.000, 0.759, 0.020, 18.369, 21.533
14.474, 10.860, -8.000, 0.000, 0.748, 0.020, 18.527, 21.681
14.688, 10.700, -8.000, 0.000, 0.735, 0.020, 18.685, 21.826
14.899, 10.540, -8.000, 0.000, 0.721, 0.020, 18.842, 21.966
15.107, 10.380, -8.000, 0.000, 0.705, 0.020, 18.999, 22.102
15.311, 10.220, -8.000, 0.000, 0.688, 0.020, 19.156, 22.233
15.512, 10.060, -8.000, 0.000, 0.670, 0.020, 19.313, 22.360
15.710, 9.900, -8.000, 0.000, 0.650, 0.020, 19.469, 22.481
15.905, 9.740, -8.000, 0.000, 0.629, 0.020, 19.625, 22.597
16.097, 9.580, -8.000, 0.000, 0.607, 0.020, 19.782, 22.708
16.285, 9.420, -8.000, 0.000, 0.584, 0.020, 19.938, 22.814
16.470, 9.260, -8.000, 0.000, 0.560, 0.020, 20.093, 22.914
16.652, 9.100, -8.000, 0.000, 0.535, 0.020, 20.249, 23.009
16.831, 8.940, -8.000, 0.000, 0.510, 0.020, 20.404, 23.098
17.007, 8.780, -8.000, 0.000, 0.485, 0.020, 20.558, 23.182
17.179, 8.620, -8.000, 0.000, 0.459, 0.020, 20.711, 23.260
17.348, 8.460, -8.000, 0.000, 0.434, 0.020, 20.864, 23.333
17.514, 8.300, -8.000, 0.000, 0.408, 0.020, 21.016, 23.401
17.677, 8.140, -8.000, 0.000, 0.383, 0.020, 21.166, 23.464
17.837, 7.980, -8.000, 0.000, 0.358, 0.020, 21.315, 23.522
17.993, 7.820, -8.000, 0.000, 0.334, 0.020, 21.462, 23.575
18.146, 7.660, -8.000, 0.000, 0.311, 0.020, 21.607, 23.623
18.296, 7.500, -8.000, 0.000, 0.288, 0.020, 21.750, 23.667
18.443, 7.340, -8.000, 0.000, 0.266, 0.020, 21.891, 23.708
18.587, 7.180, -8.000, 0.000, 0.245, 0.020, 22.030, 23.744
18.727, 7.020, -8.000, 0.000, 0.225, 0.020, 22.167, 23.776
18.864, 6.860, -8.000, 0.000, 0.206, 0.020, 22.301, 23.806
18.998, 6.700, -8.000, 0.000, 0.188, 0.020, 22.432, 23.832
19.129, 6.540, -8.000, 0.000, 0.171, 0.020, 22.561, 23.855
19.257, 6.380, -8.000, 0.000, 0.155, 0.020, 22.687, 23.876
19.381, 6.220, -8.000, 0.000, 0.140, 0.020, 22.810, 23.894
19.502, 6.060, -8.000, 0.000, 0.126, 0.020, 22.930, 23.910
19.620, 5.900, -8.000, 0.000, 0.113, 0.020, 23.047, 23.924
19.735, 5.740, -8.000, 0.000, 0.100, 0.020, 23.162, 23.936
19.847, 5.580, -8.000, 0.000, 0.089, 0.020, 23.273, 23.947
19.955, 5.420, -8.000, 0.000, 0.079, 0.020, 23.381, 23.956
20.060, 5.260, -8.000, 0.000, 0.070, 0.020, 23.486, 23.964
20.162, 5.100, -8.000, 0.000, 0.061, 0.020, 23.587, 23.971
20.261, 4.940, -8.000, 0.000, 0.053, 0.020, 23.686, 23.976
20.357, 4.780, -8.000, 0.000, 0.046, 0.020, 23.781, 23.981
20.449, 4.620, -8.000, 0.000, 0.040, 0.020, 23.874, 23.985
20.538, 4.460, -8.000, 0.000, 0.034, 0.020, 23.963, 23.988
20.624, 4.300, -8.000, 0.000, 0.029, 0.020, 24.049, 23.991
20.707, 4.140, -8.000, 0.000, 0.024, 0.020, 24.132, 23.993
20.787, 3.980, -8.000, 0.000, 0.020, 0.020, 24.211, 23.995
20.863, 3.820, -8.000, 0.000, 0.016, 0.020, 24.288, 23.996
20.936, 3.660, -8.000, 0.000, 0.013, 0.020, 24.361, 23.997
21.006, 3.500, -8.000, 0.000, 0.011, 0.020, 24.431, 23.998
21.073, 3.340, -8.000, 0.000, 0.008, 0.020, 24.498, 23.999
21.137, 3.180, -8.000, 0.000, 0.006, 0.020, 24.561, 23.999
21.197, 3.020, -8.000, 0.000, 0.005, 0.020, 24.622, 23.999
21.254, 2.860, -8.000, 0.000, 0.003, 0.020, 24.679, 24.000
21.308, 2.700, -8.000, 0.000, 0.002, 0.020, 24.733, 24.000
21.359, 2.540, -8.000, 0.000, 0.002, 0.020, 24.784, 24.000
21.407, 2.380, -8.000, 0.000, 0.001, 0.020, 24.831, 24.000
21.451, 2.220, -8.000, 0.000, 0.001, 0.020, 24.876, 24.000
21.492, 2.060, -8.000, 0.000, 0.000, 0.020, 24.917, 24.000
21.530, 1.900, -8.000, 0.000, 0.000, 0.020, 24.955, 24.000
21.565, 1.740, -8.000, 0.000, 0.000, 0.020, 24.990, 24.000
21.597, 1.580, -8.000, 0.000, 0.000, 0.020, 25.000, 24.000
21.625, 1.420, -8.000, 0.000, 0.000, 0.020, 25.000, 24.000
21.650, 1.260, -8.000, 0.000, 0.000, 0.020, 25.000, 24.000
21.672, 1.100, -8.000, 0.000, 0.000, 0.020, 25.000, 24.000
21.691, 0.940, -8.000, 0.000, 0.000, 0.020, 25.000, 24.000
21.707, 0.780, -8.000, 0.000, 0.000, 0.020, 25.000, 24.000
21.719, 0.620, -8.000, 0.000, 0.000, 0.020, 25.000, 24.000
21.728, 0.460, -8.000, 0.000, 0.000, 0.020, 25.000, 24.000
21.734, 0.300, -8.000, 0.000, 0.000, 0.020, 25.000, 24.000
