position,velocity,acceleration,jerk,heading,dt,x,y
0.000, -0.000, 0.000, 0.000, 0.000, 0.020, 2.500, 25.840
-0.003, -0.160, -7.999, -399.970, 6.283, 0.020, 2.503, 23.660
-0.010, -0.320, -7.996, 0.180, 6.283, 0.020, 2.510, 23.660
-0.019, -0.480, -7.989, 0.358, 6.283, 0.020, 2.519, 23.660
-0.032, -0.639, -7.978, 0.535, 6.283, 0.020, 2.532, 23.660
-0.048, -0.799, -7.964, 0.709, 6.283, 0.020, 2.548, 23.660
-0.067, -0.957, -7.946, 0.880, 6.283, 0.020, 2.567, 23.660
-0.089, -1.116, -7.925, 1.046, 6.283, 0.020, 2.589, 23.660
-0.115, -1.274, -7.901, 1.207, 6.283, 0.020, 2.615, 23.660
-0.144, -1.431, -7.874, 1.362, 6.283, 0.020, 2.644, 23.660
-0.175, -1.588, -7.844, 1.511, 6.283, 0.020, 2.675, 23.660
-0.210, -1.745, -7.811, 1.652, 6.282, 0.020, 2.710, 23.660
-0.248, -1.900, -7.775, 1.786, 6.282, 0.020, 2.748, 23.660
-0.289, -2.055, -7.737, 1.911, 6.281, 0.020, 2.789, 23.660
-0.333, -2.209, -7.696, 2.028, 6.281, 0.020, 2.833, 23.660
-0.381, -2.362, -7.653, 2.135, 6.280, 0.020, 2.881, 23.659
-0.431, -2.514, -7.609, 2.234, 6.279, 0.020, 2.931, 23.659
-0.484, -2.665, -7.562, 2.322, 6.278, 0.020, 2.984, 23.659
-0.541, -2.815, -7.514, 2.400, 6.277, 0.020, 3.041, 23.659
-0.600, -2.965, -7.465, 2.468, 6.276, 0.020, 3.100, 23.658
-0.662, -3.113, -7.414, 2.525, 6.274, 0.020, 3.162, 23.658
-0.727, -3.260, -7.363, 2.571, 6.272, 0.020, 3.227, 23.657
-0.795, -3.407, -7.311, 2.605, 6.270, 0.020, 3.295, 23.656
-0.866, -3.552, -7.258, 2.628, 6.268, 0.020, 3.366, 23.655
-0.940, -3.696, -7.206, 2.638, 6.265, 0.020, 3.440, 23.654
-1.017, -3.839, -7.153, 2.635, 6.262, 0.020, 3.517, 23.653
-1.094, -3.828, 0.544, 384.857, 6.259, 0.020, 3.594, 23.651
-1.170, -3.817, 0.531, -0.679, 6.256, 0.020, 3.670, 23.649
-1.246, -3.807, 0.517, -0.673, 6.252, 0.020, 3.746, 23.647
-1.322, -3.797, 0.504, -0.669, 6.248, 0.020, 3.822, 23.644
-1.398, -3.787, 0.491, -0.666, 6.245, 0.020, 3.898, 23.641
-1.473, -3.778, 0.477, -0.664, 6.241, 0.020, 3.973, 23.638
-1.549, -3.768, 0.464, -0.664, 6.236, 0.020, 4.048, 23.635
-1.624, -3.759, 0.451, -0.665, 6.232, 0.020, 4.124, 23.631
-1.699, -3.751, 0.437, -0.667, 6.227, 0.020, 4.198, 23.627
-1.774, -3.742, 0.424, -0.671, 6.223, 0.020, 4.273, 23.623
-1.849, -3.734, 0.410, -0.675, 6.218, 0.020, 4.348, 23.618
-1.923, -3.726, 0.397, -0.680, 6.213, 0.020, 4.422, 23.613
-1.997, -3.718, 0.383, -0.686, 6.207, 0.020, 4.496, 23.608
-2.072, -3.711, 0.369, -0.693, 6.202, 0.020, 4.570, 23.602
-2.146, -3.704, 0.355, -0.700, 6.197, 0.020, 4.644, 23.596
-2.220, -3.697, 0.341, -0.708, 6.191, 0.020, 4.718, 23.589
-2.293, -3.690, 0.327, -0.716, 6.185, 0.020, 4.791, 23.582
-2.367, -3.684, 0.312, -0.724, 6.180, 0.020, 4.864, 23.575
-2.441, -3.678, 0.298, -0.732, 6.174, 0.020, 4.938, 23.567
-2.514, -3.673, 0.283, -0.741, 6.168, 0.020, 5.011, 23.559
-2.588, -3.667, 0.268, -0.749, 6.162, 0.020, 5.083, 23.550
-2.661, -3.662, 0.253, -0.757, 6.155, 0.020, 5.156, 23.541
-2.734, -3.657, 0.237, -0.765, 6.149, 0.020, 5.229, 23.531
-2.807, -3.653, 0.222, -0.772, 6.143, 0.020, 5.301, 23.521
-2.880, -3.649, 0.206, -0.779, 6.136, 0.020, 5.373, 23.511
-2.953, -3.645, 0.191, -0.785, 6.130, 0.020, 5.445, 23.500
-3.026, -3.641, 0.175, -0.791, 6.123, 0.020, 5.517, 23.489
-3.098, -3.638, 0.159, -0.795, 6.117, 0.020, 5.589, 23.477
-3.171, -3.635, 0.143, -0.799, 6.110, 0.020, 5.661, 23.465
-3.244, -3.633, 0.127, -0.802, 6.103, 0.020, 5.732, 23.452
-3.316, -3.631, 0.111, -0.804, 6.096, 0.020, 5.804, 23.439
-3.389, -3.629, 0.095, -0.805, 6.090, 0.020, 5.875, 23.425
-3.462, -3.627, 0.079, -0.804, 6.083, 0.020, 5.946, 23.411
-3.534, -3.626, 0.063, -0.803, 6.076, 0.020, 6.017, 23.396
-3.607, -3.625, 0.047, -0.800, 6.069, 0.020, 6.088, 23.381
-3.679, -3.624, 0.031, -0.796, 6.062, 0.020, 6.159, 23.365
-3.752, -3.624, 0.015, -0.791, 6.055, 0.020, 6.229, 23.349
-3.824, -3.624, -0.001, -0.785, 6.048, 0.020, 6.300, 23.332
-3.896, -3.624, -0.016, -0.777, 6.041, 0.020, 6.370, 23.315
-3.969, -3.625, -0.032, -0.768, 6.035, 0.020, 6.441, 23.298
-4.042, -3.626, -0.047, -0.758, 6.028, 0.020, 6.511, 23.280
-4.114, -3.627, -0.062, -0.747, 6.021, 0.020, 6.581, 23.261
-4.187, -3.629, -0.077, -0.735, 6.014, 0.020, 6.651, 23.242
-4.259, -3.631, -0.091, -0.722, 6.007, 0.020, 6.721, 23.222
-4.332, -3.633, -0.105, -0.707, 6.001, 0.020, 6.791, 23.202
-4.405, -3.635, -0.119, -0.692, 5.994, 0.020, 6.861, 23.182
-4.477, -3.638, -0.132, -0.676, 5.987, 0.020, 6.930, 23.161
-4.550, -3.641, -0.146, -0.659, 5.981, 0.020, 7.000, 23.139
-4.623, -3.644, -0.159, -0.641, 5.974, 0.020, 7.069, 23.117
-4.696, -3.647, -0.171, -0.623, 5.968, 0.020, 7.139, 23.095
-4.769, -3.651, -0.183, -0.604, 5.961, 0.020, 7.208, 23.072
-4.842, -3.655, -0.195, -0.585, 5.955, 0.020, 7.277, 23.049
-4.915, -3.659, -0.206, -0.565, 5.949, 0.020, 7.347, 23.025
-4.989, -3.663, -0.217, -0.545, 5.942, 0.020, 7.416, 23.001
-5.062, -3.668, -0.227, -0.525, 5.936, 0.020, 7.485, 22.976
-5.135, -3.673, -0.238, -0.504, 5.930, 0.020, 7.554, 22.951
-5.209, -3.678, -0.247, -0.484, 5.924, 0.020, 7.623, 22.925
-5.283, -3.683, -0.256, -0.463, 5.919, 0.020, 7.692, 22.899
-5.356, -3.688, -0.265, -0.442, 5.913, 0.020, 7.760, 22.873
-5.430, -3.693, -0.274, -0.422, 5.907, 0.020, 7.829, 22.846
-5.504, -3.699, -0.282, -0.402, 5.902, 0.020, 7.898, 22.818
-5.578, -3.705, -0.289, -0.382, 5.896, 0.020, 7.967, 22.791
-5.652, -3.711, -0.297, -0.362, 5.891, 0.020, 8.035, 22.762
-5.727, -3.717, -0.304, -0.343, 5.886, 0.020, 8.104, 22.734
-5.801, -3.723, -0.310, -0.324, 5.881, 0.020, 8.173, 22.705
-5.876, -3.729, -0.316, -0.306, 5.876, 0.020, 8.241, 22.676
-5.951, -3.736, -0.322, -0.288, 5.871, 0.020, 8.310, 22.646
-6.025, -3.742, -0.327, -0.271, 5.866, 0.020, 8.378, 22.616
-6.100, -3.749, -0.332, -0.254, 5.862, 0.020, 8.447, 22.585
-6.176, -3.756, -0.337, -0.237, 5.857, 0.020, 8.515, 22.554
-6.251, -3.763, -0.342, -0.222, 5.853, 0.020, 8.584, 22.523
-6.326, -3.770, -0.346, -0.207, 5.849, 0.020, 8.652, 22.491
-6.402, -3.777, -0.350, -0.192, 5.844, 0.020, 8.720, 22.459
-6.477, -3.784, -0.353, -0.179, 5.841, 0.020, 8.789, 22.427
-6.553, -3.791, -0.356, -0.166, 5.837, 0.020, 8.857, 22.394
-6.629, -3.798, -0.359, -0.153, 5.833, 0.020, 8.926, 22.362
-6.705, -3.805, -0.362, -0.141, 5.829, 0.020, 8.994, 22.328
-6.782, -3.812, -0.365, -0.130, 5.826, 0.020, 9.063, 22.295
-6.858, -3.820, -0.367, -0.119, 5.823, 0.020, 9.131, 22.261
-6.934, -3.827, -0.369, -0.109, 5.819, 0.020, 9.200, 22.227
-7.011, -3.835, -0.371, -0.100, 5.816, 0.020, 9.268, 22.192
-7.088, -3.842, -0.373, -0.091, 5.814, 0.020, 9.337, 22.158
-7.165, -3.850, -0.375, -0.083, 5.811, 0.020, 9.405, 22.123
-7.242, -3.857, -0.376, -0.075, 5.808, 0.020, 9.474, 22.088
-7.319, -3.865, -0.378, -0.068, 5.806, 0.020, 9.543, 22.052
-7.397, -3.872, -0.379, -0.062, 5.803, 0.020, 9.612, 22.016
-7.474, -3.880, -0.380, -0.055, 5.801, 0.020, 9.680, 21.981
-7.552, -3.887, -0.381, -0.050, 5.799, 0.020, 9.749, 21.944
-7.630, -3.895, -0.382, -0.044, 5.797, 0.020, 9.818, 21.908
-7.708, -3.903, -0.383, -0.040, 5.795, 0.020, 9.887, 21.872
-7.786, -3.910, -0.384, -0.035, 5.794, 0.020, 9.956, 21.835
-7.865, -3.918, -0.384, -0.031, 5.792, 0.020, 10.025, 21.798
-7.943, -3.926, -0.385, -0.027, 5.791, 0.020, 10.094, 21.761
-8.022, -3.934, -0.385, -0.024, 5.790, 0.020, 10.164, 21.724
-8.101, -3.941, -0.386, -0.021, 5.789, 0.020, 10.233, 21.686
-8.180, -3.949, -0.386, -0.018, 5.788, 0.020, 10.303, 21.649
-8.259, -3.957, -0.386, -0.015, 5.787, 0.020, 10.372, 21.611
-8.338, -3.964, -0.387, -0.012, 5.786, 0.020, 10.442, 21.573
-8.418, -3.972, -0.387, -0.010, 5.786, 0.020, 10.512, 21.535
-8.497, -3.980, -0.387, -0.008, 5.785, 0.020, 10.582, 21.497
-8.577, -3.988, -0.387, -0.005, 5.785, 0.020, 10.652, 21.459
-8.657, -3.995, -0.387, -0.003, 5.785, 0.020, 10.722, 21.421
-8.737, -4.003, -0.387, -0.001, 5.785, 0.020, 10.792, 21.383
-8.817, -4.011, -0.387, 0.001, 5.785, 0.020, 10.863, 21.345
-8.897, -4.019, -0.387, 0.003, 5.786, 0.020, 10.933, 21.306
-8.978, -4.026, -0.387, 0.005, 5.786, 0.020, 11.004, 21.268
-9.059, -4.034, -0.387, 0.007, 5.787, 0.020, 11.075, 21.229
-9.140, -4.042, -0.387, 0.009, 5.787, 0.020, 11.146, 21.191
-9.221, -4.050, -0.386, 0.012, 5.788, 0.020, 11.217, 21.152
-9.302, -4.057, -0.386, 0.014, 5.789, 0.020, 11.289, 21.114
-9.383, -4.065, -0.386, 0.017, 5.791, 0.020, 11.360, 21.075
-9.464, -4.073, -0.385, 0.020, 5.792, 0.020, 11.432, 21.037
-9.546, -4.080, -0.385, 0.023, 5.793, 0.020, 11.504, 20.998
-9.628, -4.088, -0.384, 0.027, 5.795, 0.020, 11.576, 20.960
-9.710, -4.096, -0.384, 0.030, 5.797, 0.020, 11.649, 20.922
-9.792, -4.103, -0.383, 0.034, 5.799, 0.020, 11.721, 20.883
-9.874, -4.111, -0.382, 0.039, 5.801, 0.020, 11.794, 20.845
-9.956, -4.119, -0.381, 0.044, 5.803, 0.020, 11.867, 20.807
-10.039, -4.126, -0.380, 0.049, 5.805, 0.020, 11.940, 20.769
-10.122, -4.134, -0.379, 0.054, 5.808, 0.020, 12.014, 20.731
-10.204, -4.141, -0.378, 0.060, 5.810, 0.020, 12.088, 20.693
-10.287, -4.149, -0.377, 0.067, 5.813, 0.020, 12.161, 20.656
-10.370, -4.156, -0.375, 0.074, 5.816, 0.020, 12.236, 20.618
-10.454, -4.164, -0.374, 0.082, 5.819, 0.020, 12.310, 20.581
-10.537, -4.171, -0.372, 0.090, 5.822, 0.020, 12.385, 20.543
-10.621, -4.179, -0.370, 0.098, 5.825, 0.020, 12.460, 20.506
-10.704, -4.186, -0.368, 0.108, 5.829, 0.020, 12.535, 20.469
-10.788, -4.193, -0.365, 0.117, 5.832, 0.020, 12.610, 20.433
-10.872, -4.201, -0.363, 0.128, 5.836, 0.020, 12.686, 20.396
-10.957, -4.208, -0.360, 0.139, 5.840, 0.020, 12.762, 20.360
-11.041, -4.215, -0.357, 0.151, 5.844, 0.020, 12.838, 20.324
-11.125, -4.222, -0.354, 0.163, 5.848, 0.020, 12.915, 20.288
-11.210, -4.229, -0.350, 0.176, 5.852, 0.020, 12.991, 20.253
-11.295, -4.236, -0.346, 0.190, 5.856, 0.020, 13.068, 20.217
-11.379, -4.243, -0.342, 0.204, 5.861, 0.020, 13.146, 20.182
-11.464, -4.250, -0.338, 0.219, 5.865, 0.020, 13.223, 20.148
-11.550, -4.256, -0.333, 0.234, 5.870, 0.020, 13.301, 20.113
-11.635, -4.263, -0.328, 0.250, 5.875, 0.020, 13.379, 20.079
-11.720, -4.269, -0.323, 0.267, 5.880, 0.020, 13.458, 20.046
-11.806, -4.276, -0.317, 0.284, 5.885, 0.020, 13.536, 20.012
-11.891, -4.282, -0.311, 0.302, 5.890, 0.020, 13.615, 19.979
-11.977, -4.288, -0.305, 0.320, 5.895, 0.020, 13.695, 19.947
-12.063, -4.294, -0.298, 0.339, 5.901, 0.020, 13.774, 19.914
-12.149, -4.300, -0.291, 0.358, 5.906, 0.020, 13.854, 19.882
-12.235, -4.305, -0.283, 0.378, 5.912, 0.020, 13.934, 19.851
-12.321, -4.311, -0.275, 0.398, 5.917, 0.020, 14.015, 19.820
-12.408, -4.316, -0.267, 0.418, 5.923, 0.020, 14.096, 19.789
-12.494, -4.321, -0.258, 0.438, 5.929, 0.020, 14.177, 19.759
-12.581, -4.326, -0.249, 0.459, 5.935, 0.020, 14.258, 19.729
-12.667, -4.331, -0.239, 0.479, 5.941, 0.020, 14.339, 19.700
-12.754, -4.336, -0.229, 0.500, 5.947, 0.020, 14.421, 19.671
-12.841, -4.340, -0.219, 0.521, 5.954, 0.020, 14.503, 19.643
-12.928, -4.344, -0.208, 0.541, 5.960, 0.020, 14.585, 19.615
-13.015, -4.348, -0.197, 0.561, 5.966, 0.020, 14.668, 19.588
-13.102, -4.352, -0.185, 0.581, 5.973, 0.020, 14.751, 19.561
-13.189, -4.355, -0.173, 0.600, 5.979, 0.020, 14.834, 19.534
-13.276, -4.359, -0.161, 0.619, 5.986, 0.020, 14.917, 19.509
-13.363, -4.362, -0.148, 0.638, 5.993, 0.020, 15.001, 19.483
-13.450, -4.364, -0.135, 0.656, 5.999, 0.020, 15.084, 19.459
-13.538, -4.367, -0.122, 0.673, 6.006, 0.020, 15.168, 19.434
-13.625, -4.369, -0.108, 0.689, 6.013, 0.020, 15.252, 19.411
-13.713, -4.371, -0.094, 0.704, 6.020, 0.020, 15.337, 19.388
-13.800, -4.372, -0.079, 0.719, 6.026, 0.020, 15.421, 19.365
-13.887, -4.374, -0.065, 0.732, 6.033, 0.020, 15.506, 19.343
-13.975, -4.375, -0.050, 0.745, 6.040, 0.020, 15.591, 19.322
-14.062, -4.375, -0.035, 0.756, 6.047, 0.020, 15.676, 19.301
-14.150, -4.376, -0.019, 0.766, 6.054, 0.020, 15.761, 19.281
-14.238, -4.376, -0.004, 0.775, 6.061, 0.020, 15.846, 19.261
-14.325, -4.376, 0.012, 0.783, 6.068, 0.020, 15.932, 19.242
-14.413, -4.375, 0.027, 0.790, 6.075, 0.020, 16.017, 19.224
-14.500, -4.374, 0.043, 0.795, 6.081, 0.020, 16.103, 19.206
-14.587, -4.373, 0.059, 0.799, 6.088, 0.020, 16.188, 19.189
-14.675, -4.372, 0.075, 0.802, 6.095, 0.020, 16.274, 19.172
-14.762, -4.370, 0.092, 0.804, 6.102, 0.020, 16.360, 19.156
-14.850, -4.368, 0.108, 0.805, 6.109, 0.020, 16.446, 19.141
-14.937, -4.365, 0.124, 0.804, 6.115, 0.020, 16.532, 19.126
-15.024, -4.362, 0.140, 0.803, 6.122, 0.020, 16.618, 19.112
-15.111, -4.359, 0.156, 0.800, 6.129, 0.020, 16.704, 19.098
-15.198, -4.356, 0.172, 0.796, 6.135, 0.020, 16.790, 19.085
-15.286, -4.352, 0.188, 0.792, 6.142, 0.020, 16.877, 19.072
-15.372, -4.348, 0.203, 0.786, 6.148, 0.020, 16.963, 19.060
-15.459, -4.344, 0.219, 0.780, 6.154, 0.020, 17.049, 19.049
-15.546, -4.339, 0.234, 0.774, 6.160, 0.020, 17.135, 19.038
-15.633, -4.334, 0.250, 0.766, 6.167, 0.020, 17.221, 19.027
-15.719, -4.329, 0.265, 0.759, 6.173, 0.020, 17.307, 19.018
-15.806, -4.323, 0.280, 0.751, 6.178, 0.020, 17.393, 19.008
-15.892, -4.317, 0.295, 0.742, 6.184, 0.020, 17.479, 19.000
-15.978, -4.311, 0.309, 0.734, 6.190, 0.020, 17.565, 18.991
-16.064, -4.304, 0.324, 0.726, 6.196, 0.020, 17.650, 18.984
-16.150, -4.298, 0.338, 0.717, 6.201, 0.020, 17.736, 18.976
-16.236, -4.291, 0.352, 0.709, 6.206, 0.020, 17.822, 18.969
-16.322, -4.283, 0.366, 0.702, 6.212, 0.020, 17.907, 18.963
-16.407, -4.276, 0.380, 0.694, 6.217, 0.020, 17.992, 18.957
-16.493, -4.268, 0.394, 0.687, 6.222, 0.020, 18.078, 18.952
-16.578, -4.260, 0.408, 0.681, 6.226, 0.020, 18.163, 18.947
-16.663, -4.251, 0.421, 0.676, 6.231, 0.020, 18.247, 18.942
-16.748, -4.243, 0.435, 0.671, 6.235, 0.020, 18.332, 18.938
-16.833, -4.234, 0.448, 0.668, 6.240, 0.020, 18.417, 18.934
-16.917, -4.224, 0.461, 0.665, 6.244, 0.020, 18.501, 18.930
-17.001, -4.215, 0.475, 0.664, 6.248, 0.020, 18.585, 18.927
-17.085, -4.205, 0.488, 0.664, 6.251, 0.020, 18.670, 18.924
-17.169, -4.195, 0.501, 0.665, 6.255, 0.020, 18.753, 18.922
-17.253, -4.185, 0.515, 0.668, 6.258, 0.020, 18.837, 18.920
-17.336, -4.174, 0.528, 0.672, 6.262, 0.020, 18.920, 18.918
-17.420, -4.163, 0.542, 0.678, 6.265, 0.020, 19.004, 18.916
-17.503, -4.152, 0.555, 0.685, 6.267, 0.020, 19.087, 18.915
-17.586, -4.141, 0.569, 0.695, 6.270, 0.020, 19.170, 18.914
-17.668, -4.129, 0.583, 0.706, 6.272, 0.020, 19.252, 18.913
-17.751, -4.117, 0.598, 0.719, 6.275, 0.020, 19.335, 18.912
-17.833, -4.105, 0.612, 0.734, 6.276, 0.020, 19.417, 18.911
-17.915, -4.092, 0.627, 0.751, 6.278, 0.020, 19.498, 18.911
-17.996, -4.080, 0.643, 0.770, 6.280, 0.020, 19.580, 18.910
-18.077, -4.066, 0.659, 0.791, 6.281, 0.020, 19.661, 18.910
-18.158, -4.053, 0.675, 0.815, 6.282, 0.020, 19.742, 18.910
-18.239, -4.039, 0.692, 0.841, 6.283, 0.020, 19.823, 18.910
-18.320, -4.025, 0.709, 0.869, 6.283, 0.020, 19.904, 18.910
-18.400, -4.010, -200.520, -20088.338, 6.283, 0.020, 19.984, 18.910
-18.480, -4.020, -0.479, 10002.021, 0.000, 0.020, 20.064, 18.910
-18.562, -4.079, -2.966, -124.319, 0.002, 0.020, 20.146, 18.910
-18.645, -4.139, -2.991, -1.265, 0.004, 0.020, 20.229, 18.910
-18.729, -4.199, -2.969, 1.096, 0.008, 0.020, 20.313, 18.911
-18.814, -4.258, -2.976, -0.349, 0.013, 0.020, 20.398, 18.912
-18.900, -4.318, -3.011, -1.735, 0.019, 0.020, 20.484, 18.913
-18.988, -4.380, -3.073, -3.089, 0.026, 0.020, 20.572, 18.915
-19.077, -4.443, -3.161, -4.436, 0.034, 0.020, 20.661, 18.917
-19.167, -4.508, -3.277, -5.795, 0.043, 0.020, 20.751, 18.921
-19.258, -4.577, -3.421, -7.184, 0.054, 0.020, 20.842, 18.925
-19.351, -4.649, -3.593, -8.613, 0.065, 0.020, 20.935, 18.931
-19.446, -4.725, -3.795, -10.091, 0.079, 0.020, 21.029, 18.938
-19.542, -4.805, -4.027, -11.618, 0.094, 0.020, 21.125, 18.946
-19.640, -4.891, -4.291, -13.186, 0.110, 0.020, 21.222, 18.956
-19.739, -4.983, -4.587, -14.773, 0.128, 0.020, 21.321, 18.968
-19.841, -5.081, -4.913, -16.340, 0.148, 0.020, 21.422, 18.982
-19.945, -5.186, -5.270, -17.824, 0.170, 0.020, 21.524, 18.998
-20.051, -5.299, -5.652, -19.127, 0.193, 0.020, 21.629, 19.017
-20.159, -5.421, -6.055, -20.111, 0.219, 0.020, 21.735, 19.039
-20.270, -5.550, -6.466, -20.583, 0.248, 0.020, 21.843, 19.065
-20.384, -5.687, -6.872, -20.287, 0.279, 0.020, 21.952, 19.095
-20.501, -5.832, -7.250, -18.901, 0.312, 0.020, 22.064, 19.128
-20.620, -5.984, -7.571, -16.042, 0.349, 0.020, 22.177, 19.167
-20.743, -6.140, -7.797, -11.290, 0.388, 0.020, 22.292, 19.212
-20.869, -6.297, -7.882, -4.250, 0.430, 0.020, 22.407, 19.262
-20.998, -6.453, -7.775, 5.359, 0.475, 0.020, 22.523, 19.318
-21.130, -6.601, -7.423, 17.568, 0.523, 0.020, 22.639, 19.381
-21.265, -6.737, -6.783, 32.005, 0.573, 0.020, 22.754, 19.451
-21.402, -6.853, -5.828, 47.772, 0.626, 0.020, 22.868, 19.529
-21.541, -6.945, -4.559, 63.422, 0.680, 0.020, 22.978, 19.613
-21.681, -7.005, -3.017, 77.097, 0.735, 0.020, 23.084, 19.704
-21.822, -7.031, -1.280, 86.865, 0.790, 0.020, 23.186, 19.801
-21.962, -7.020, 0.544, 91.184, 0.846, 0.020, 23.282, 19.904
-22.101, -6.973, 2.330, 89.330, 0.900, 0.020, 23.372, 20.011
-22.239, -6.894, 3.963, 81.615, 0.953, 0.020, 23.454, 20.121
-22.375, -6.787, 5.348, 69.293, 1.005, 0.020, 23.530, 20.234
-22.508, -6.658, 6.432, 54.193, 1.053, 0.020, 23.599, 20.348
-22.638, -6.514, 7.197, 38.255, 1.100, 0.020, 23.661, 20.462
-22.766, -6.361, 7.660, 23.121, 1.143, 0.020, 23.716, 20.577
-22.890, -6.204, 7.858, 9.919, 1.183, 0.020, 23.765, 20.691
-23.011, -6.047, 7.843, -0.778, 1.221, 0.020, 23.809, 20.804
-23.129, -5.894, 7.666, -8.855, 1.256, 0.020, 23.847, 20.915
-23.243, -5.746, 7.375, -14.508, 1.288, 0.020, 23.881, 21.025
-23.356, -5.606, 7.013, -18.102, 1.317, 0.020, 23.911, 21.133
-23.465, -5.474, 6.612, -20.056, 1.344, 0.020, 23.937, 21.239
-23.572, -5.350, 6.197, -20.771, 1.369, 0.020, 23.959, 21.344
-23.677, -5.234, 5.785, -20.599, 1.392, 0.020, 23.979, 21.447
-23.779, -5.126, 5.388, -19.822, 1.412, 0.020, 23.996, 21.548
-23.880, -5.026, 5.015, -18.658, 1.431, 0.020, 24.011, 21.647
-23.978, -4.933, 4.670, -17.269, 1.448, 0.020, 24.024, 21.745
-24.075, -4.846, 4.355, -15.766, 1.464, 0.020, 24.035, 21.841
-24.171, -4.764, 4.070, -14.228, 1.478, 0.020, 24.045, 21.936
-24.261, -4.502, 13.121, 452.558, 1.490, 0.020, 24.053, 22.026
-24.346, -4.252, 12.494, -31.361, 1.500, 0.020, 24.059, 22.111
-24.426, -4.013, 11.951, -27.127, 1.509, 0.020, 24.064, 22.191
-24.502, -3.783, 11.480, -23.591, 1.517, 0.020, 24.069, 22.266
-24.573, -3.562, 11.067, -20.639, 1.524, 0.020, 24.072, 22.337
-24.640, -3.348, 10.703, -18.171, 1.529, 0.020, 24.075, 22.404
-24.703, -3.140, 10.381, -16.101, 1.534, 0.020, 24.078, 22.467
-24.761, -2.938, 10.094, -14.356, 1.538, 0.020, 24.080, 22.526
-24.816, -2.742, 9.837, -12.875, 1.542, 0.020, 24.081, 22.581
-24.867, -2.550, 9.605, -11.608, 1.544, 0.020, 24.083, 22.631
-24.914, -2.362, 9.394, -10.511, 1.546, 0.020, 24.084, 22.679
-24.958, -2.178, 9.203, -9.548, 1.548, 0.020, 24.085, 22.722
-24.998, -1.997, 9.030, -8.689, 1.550, 0.020, 24.086, 22.762
-25.034, -1.820, 8.871, -7.909, 1.551, 0.020, 24.087, 22.799
-25.067, -1.645, 8.728, -7.187, 1.552, 0.020, 24.087, 22.831
-25.097, -1.473, 8.598, -6.505, 1.552, 0.020, 24.088, 22.861
-25.123, -1.303, 8.481, -5.849, 1.553, 0.020, 24.088, 22.887
-25.145, -1.136, 8.376, -5.208, 1.553, 0.020, 24.089, 22.910
-25.165, -0.970, 8.285, -4.572, 1.553, 0.020, 24.089, 22.929
-25.181, -0.806, 8.206, -3.937, 1.553, 0.020, 24.089, 22.945
-25.194, -0.643, 8.140, -3.297, 1.553, 0.020, 24.090, 22.958
-25.204, -0.482, 8.087, -2.650, 1.553, 0.020, 24.090, 22.968
-25.210, -0.321, 8.047, -1.996, 1.553, 0.020, 24.090, 22.974
-21.823, 0.000, 15.972, 400.968, 1.553, 0.020, 21.910, 23.015
-21.823, 0.000, 0.000, -798.597, 1.553, 0.020, 21.910, 23.015
-21.823, 0.000, 0.000, 0.000, 1.553, 0.020, 21.910, 23.015
-21.823, 0.000, 0.000, 0.000, 1.553, 0.020, 21.910, 23.015
-21.823, 0.000, 0.000, 0.000, 1.553, 0.020, 21.910, 23.015
-21.823, -0.000, -0.000, -0.000, 1.553, 0.020, 21.910, 23.015
-25.213, -0.160, -8.003, -400.144, 1.553, 0.020, 24.090, 22.981
-27.403, -0.482, 5426.941, 543497.783, 4.695, 0.020, 21.910, 23.003
-27.416, -0.644, -8.130, -271753.541, 4.695, 0.020, 21.909, 22.991
-27.432, -0.808, -8.216, -4.338, 4.695, 0.020, 21.909, 22.974
-27.452, -0.975, -8.322, -5.265, 4.695, 0.020, 21.909, 22.955
