position,velocity,acceleration,jerk,heading,dt,x,y
0.000, 0.000, 0.000, 0.000, -1.571, 0.020, 8.910, 18.000
0.003, 0.160, 8.000, 399.977, -1.571, 0.020, 8.910, 18.003
0.010, 0.320, 7.997, -0.139, -1.571, 0.020, 8.910, 18.010
0.019, 0.480, 7.991, -0.278, -1.571, 0.020, 8.910, 18.019
0.032, 0.639, 7.983, -0.416, -1.571, 0.020, 8.910, 18.032
0.048, 0.799, 7.972, -0.553, -1.571, 0.020, 8.910, 18.048
0.067, 0.958, 7.958, -0.687, -1.571, 0.020, 8.910, 18.067
0.089, 1.117, 7.942, -0.820, -1.571, 0.020, 8.910, 18.090
0.115, 1.275, 7.923, -0.950, -1.571, 0.020, 8.910, 18.115
0.144, 1.433, 7.901, -1.077, -1.571, 0.020, 8.910, 18.144
0.175, 1.591, 7.877, -1.203, -1.570, 0.020, 8.910, 18.176
0.210, 1.748, 7.851, -1.325, -1.570, 0.020, 8.910, 18.211
0.248, 1.904, 7.822, -1.446, -1.570, 0.020, 8.910, 18.249
0.290, 2.060, 7.790, -1.566, -1.570, 0.020, 8.910, 18.290
0.334, 2.215, 7.757, -1.684, -1.569, 0.020, 8.910, 18.334
0.381, 2.370, 7.721, -1.803, -1.569, 0.020, 8.910, 18.382
0.432, 2.523, 7.682, -1.923, -1.568, 0.020, 8.909, 18.432
0.485, 2.676, 7.641, -2.045, -1.567, 0.020, 8.909, 18.486
0.542, 2.828, 7.598, -2.170, -1.566, 0.020, 8.909, 18.542
0.602, 2.979, 7.552, -2.301, -1.565, 0.020, 8.909, 18.602
0.664, 3.129, 7.503, -2.438, -1.564, 0.020, 8.908, 18.664
0.730, 3.278, 7.451, -2.585, -1.562, 0.020, 8.908, 18.730
0.798, 3.426, 7.396, -2.742, -1.561, 0.020, 8.907, 18.798
0.870, 3.573, 7.338, -2.913, -1.559, 0.020, 8.906, 18.870
0.944, 3.718, 7.276, -3.101, -1.556, 0.020, 8.905, 18.944
1.021, 3.863, 7.210, -3.308, -1.554, 0.020, 8.904, 19.021
1.101, 4.005, 7.139, -3.538, -1.551, 0.020, 8.903, 19.102
1.184, 4.147, 7.063, -3.795, -1.548, 0.020, 8.901, 19.184
1.270, 4.286, 6.982, -4.084, -1.544, 0.020, 8.899, 19.270
1.359, 4.424, 6.894, -4.409, -1.540, 0.020, 8.896, 19.359
1.450, 4.560, 6.798, -4.775, -1.536, 0.020, 8.893, 19.450
1.544, 4.694, 6.694, -5.191, -1.531, 0.020, 8.890, 19.544
1.640, 4.826, 6.581, -5.662, -1.526, 0.020, 8.886, 19.640
1.739, 4.955, 6.457, -6.197, -1.520, 0.020, 8.881, 19.739
1.841, 5.081, 6.321, -6.806, -1.513, 0.020, 8.875, 19.840
1.945, 5.205, 6.171, -7.498, -1.506, 0.020, 8.869, 19.944
2.051, 5.325, 6.005, -8.286, -1.498, 0.020, 8.862, 20.051
2.160, 5.441, 5.822, -9.183, -1.489, 0.020, 8.853, 20.159
2.271, 5.553, 5.618, -10.203, -1.479, 0.020, 8.844, 20.270
2.385, 5.661, 5.390, -11.362, -1.469, 0.020, 8.833, 20.382
2.500, 5.764, 5.137, -12.676, -1.457, 0.020, 8.820, 20.497
2.617, 5.861, 4.854, -14.162, -1.444, 0.020, 8.806, 20.613
2.736, 5.952, 4.537, -15.834, -1.430, 0.020, 8.790, 20.731
2.857, 6.035, 4.183, -17.704, -1.415, 0.020, 8.773, 20.851
2.979, 6.111, 3.787, -19.774, -1.398, 0.020, 8.753, 20.971
3.103, 6.178, 3.347, -22.035, -1.379, 0.020, 8.730, 21.093
3.227, 6.235, 2.858, -24.455, -1.358, 0.020, 8.705, 21.215
3.353, 6.282, 2.318, -26.970, -1.336, 0.020, 8.677, 21.338
3.479, 6.316, 1.729, -29.463, -1.311, 0.020, 8.646, 21.460
3.606, 6.338, 1.094, -31.741, -1.283, 0.020, 8.612, 21.582
3.733, 6.347, 0.424, -33.505, -1.253, 0.020, 8.574, 21.703
3.860, 6.341, -0.262, -34.317, -1.219, 0.020, 8.533, 21.823
3.986, 6.323, -0.934, -33.562, -1.183, 0.020, 8.487, 21.941
4.112, 6.292, -1.542, -30.432, -1.143, 0.020, 8.437, 22.056
4.237, 6.251, -2.021, -23.954, -1.099, 0.020, 8.383, 22.169
4.361, 6.206, -2.283, -13.086, -1.051, 0.020, 8.324, 22.278
4.484, 6.161, -2.222, 3.041, -1.000, 0.020, 8.260, 22.384
4.607, 6.127, -1.727, 24.744, -0.945, 0.020, 8.191, 22.485
4.729, 6.113, -0.701, 51.294, -0.887, 0.020, 8.116, 22.582
4.852, 6.131, 0.908, 80.483, -0.826, 0.020, 8.036, 22.674
4.976, 6.192, 3.079, 108.553, -0.764, 0.020, 7.949, 22.763
5.102, 6.306, 5.695, 130.775, -0.700, 0.020, 7.855, 22.847
5.231, 6.477, 8.549, 142.722, -0.637, 0.020, 7.754, 22.927
5.365, 6.705, 11.385, 141.789, -0.575, 0.020, 7.643, 23.004
5.505, 6.984, 13.949, 128.209, -0.516, 0.020, 7.524, 23.076
5.650, 7.251, 13.327, -31.098, -0.459, 0.020, 7.396, 23.144
5.797, 7.363, 5.627, -385.005, -0.408, 0.020, 7.262, 23.206
5.947, 7.472, 5.467, -8.000, -0.361, 0.020, 7.124, 23.262
6.098, 7.570, 4.859, -30.390, -0.320, 0.020, 6.981, 23.312
6.251, 7.649, 3.984, -43.751, -0.282, 0.020, 6.835, 23.358
6.405, 7.709, 2.981, -50.180, -0.249, 0.020, 6.686, 23.398
6.560, 7.748, 1.945, -51.801, -0.219, 0.020, 6.535, 23.434
6.716, 7.767, 0.937, -50.381, -0.193, 0.020, 6.383, 23.466
6.871, 7.766, -0.008, -47.231, -0.170, 0.020, 6.230, 23.494
7.026, 7.749, -0.873, -43.245, -0.149, 0.020, 6.077, 23.518
7.180, 7.716, -1.652, -38.997, -0.130, 0.020, 5.925, 23.540
7.334, 7.669, -2.349, -34.827, -0.114, 0.020, 5.772, 23.559
7.486, 7.610, -2.967, -30.921, -0.099, 0.020, 5.621, 23.575
7.637, 7.539, -3.515, -27.368, -0.086, 0.020, 5.471, 23.589
7.786, 7.459, -3.999, -24.194, -0.075, 0.020, 5.322, 23.601
7.933, 7.371, -4.427, -21.393, -0.065, 0.020, 5.175, 23.611
8.079, 7.275, -4.805, -18.940, -0.056, 0.020, 5.030, 23.620
8.222, 7.172, -5.141, -16.800, -0.048, 0.020, 4.887, 23.627
8.363, 7.063, -5.440, -14.940, -0.041, 0.020, 4.745, 23.633
8.502, 6.949, -5.707, -13.321, -0.035, 0.020, 4.607, 23.639
8.639, 6.830, -5.945, -11.913, -0.029, 0.020, 4.470, 23.643
8.773, 6.707, -6.159, -10.686, -0.025, 0.020, 4.336, 23.647
8.905, 6.580, -6.351, -9.613, -0.021, 0.020, 4.204, 23.650
9.034, 6.449, -6.524, -8.671, -0.017, 0.020, 4.075, 23.652
9.160, 6.316, -6.681, -7.842, -0.014, 0.020, 3.949, 23.654
9.284, 6.179, -6.823, -7.107, -0.011, 0.020, 3.826, 23.656
9.405, 6.040, -6.952, -6.454, -0.009, 0.020, 3.705, 23.657
9.522, 5.899, -7.070, -5.869, -0.007, 0.020, 3.587, 23.658
9.638, 5.755, -7.176, -5.342, -0.006, 0.020, 3.472, 23.659
9.750, 5.610, -7.274, -4.864, -0.004, 0.020, 3.360, 23.659
9.859, 5.463, -7.362, -4.429, -0.003, 0.020, 3.250, 23.660
9.965, 5.314, -7.443, -4.031, -0.002, 0.020, 3.144, 23.660
10.069, 5.163, -7.516, -3.663, -0.001, 0.020, 3.041, 23.660
10.169, 5.012, -7.583, -3.323, -0.001, 0.020, 2.940, 23.660
10.266, 4.859, -7.643, -3.007, -0.000, 0.020, 2.843, 23.660
10.360, 4.705, -7.697, -2.712, -0.000, 0.020, 2.749, 23.660
10.451, 4.550, -7.746, -2.436, 0.000, 0.020, 2.658, 23.660
10.539, 4.394, -7.789, -2.178, 0.000, 0.020, 2.570, 23.660
10.624, 4.238, -7.828, -1.937, 0.000, 0.020, 2.486, 23.660
10.705, 4.080, -7.862, -1.710, 0.001, 0.020, 2.404, 23.660
10.784, 3.923, -7.892, -1.499, 0.001, 0.020, 2.326, 23.660
10.859, 3.764, -7.918, -1.301, 0.001, 0.020, 2.250, 23.660
10.931, 3.605, -7.941, -1.117, 0.001, 0.020, 2.178, 23.660
11.000, 3.446, -7.960, -0.947, 0.000, 0.020, 2.109, 23.660
11.066, 3.287, -7.975, -0.791, 0.000, 0.020, 2.043, 23.660
11.128, 3.127, -7.988, -0.647, 0.000, 0.020, 1.981, 23.660
11.188, 2.967, -7.999, -0.517, 0.000, 0.020, 1.922, 23.660
11.244, 2.807, -8.007, -0.399, 0.000, 0.020, 1.865, 23.660
11.297, 2.647, -8.013, -0.294, 0.000, 0.020, 1.813, 23.660
11.347, 2.486, -8.017, -0.202, 0.000, 0.020, 1.763, 23.660
11.393, 2.326, -8.019, -0.121, 0.000, 0.020, 1.716, 23.660
11.436, 2.165, -8.020, -0.053, 0.000, 0.020, 1.673, 23.660
11.476, 2.005, -8.020, 0.004, 0.000, 0.020, 1.633, 23.660
11.513, 1.845, -8.019, 0.051, 0.000, 0.020, 1.596, 23.660
11.547, 1.684, -8.017, 0.087, 0.000, 0.020, 1.562, 23.660
11.578, 1.524, -8.015, 0.113, 0.000, 0.020, 1.532, 23.660
11.605, 1.364, -8.012, 0.131, 0.000, 0.020, 1.505, 23.660
11.609, 0.000, -11.288, 2280.798, 0.000, 0.020, 1.500, 23.660
11.609, 0.000, 0.000, 564.386, 0.000, 0.020, 1.500, 23.660
11.609, 0.000, 0.000, 0.000, 0.000, 0.020, 1.500, 23.660
11.609, 0.000, 0.000, 0.000, 0.000, 0.020, 1.500, 23.660
11.609, 0.000, 0.000, 0.000, 0.000, 0.020, 1.500, 23.660
11.609, 0.000, 0.000, 0.000, 0.000, 0.020, 1.500, 23.660
11.609, 0.000, 0.000, 0.000, 0.000, 0.020, 1.500, 23.660
11.609, 0.000, 0.000, 0.000, 0.000, 0.020, 1.500, 23.660
11.609, 0.000, 0.000, 0.000, 0.000, 0.020, 1.500, 23.660
11.609, 0.000, 0.000, 0.000, 0.000, 0.020, 1.500, 23.660
11.609, 0.000, 0.000, 0.000, 0.000, 0.020, 1.500, 23.660
