position,velocity,acceleration,jerk,heading,dt,x,y
0.000, -0.000, 0.000, 0.000, 0.000, 0.020, 5.500, 18.444
-0.003, -0.160, -8.000, -400.000, 0.000, 0.020, 5.503, 16.264
-0.010, -0.320, -8.000, -0.000, 0.000, 0.020, 5.510, 16.264
-0.019, -0.480, -8.000, 0.000, 0.000, 0.020, 5.519, 16.264
-0.032, -0.640, -8.000, -0.000, 0.000, 0.020, 5.532, 16.264
-0.048, -0.800, -8.000, 0.000, 0.000, 0.020, 5.548, 16.264
-0.067, -0.960, -8.000, -0.000, 0.000, 0.020, 5.567, 16.264
-0.090, -1.120, -8.000, 0.000, 0.000, 0.020, 5.590, 16.264
-0.115, -1.280, -8.000, -0.000, 0.000, 0.020, 5.615, 16.264
-0.144, -1.440, -8.000, 0.000, 0.000, 0.020, 5.644, 16.264
-0.176, -1.600, -8.000, 0.000, 0.000, 0.020, 5.676, 16.264
-0.211, -1.760, -8.000, -0.000, 0.000, 0.020, 5.711, 16.264
-0.250, -1.920, -8.000, -0.000, 0.000, 0.020, 5.750, 16.264
-0.291, -2.080, -8.000, -0.000, 0.000, 0.020, 5.791, 16.264
-0.336, -2.240, -8.000, -0.000, 0.000, 0.020, 5.836, 16.264
-0.384, -2.400, -8.000, 0.000, 0.000, 0.020, 5.884, 16.264
-0.435, -2.560, -8.000, 0.000, 0.000, 0.020, 5.935, 16.264
-0.490, -2.720, -8.000, -0.000, 0.000, 0.020, 5.990, 16.264
-0.547, -2.880, -8.000, 0.000, 0.000, 0.020, 6.047, 16.264
-0.608, -3.040, -8.000, 0.000, 0.000, 0.020, 6.108, 16.264
-0.672, -3.200, -8.000, -0.000, 0.000, 0.020, 6.172, 16.264
-0.739, -3.360, -8.000, -0.000, 0.000, 0.020, 6.239, 16.264
-0.810, -3.520, -8.000, 0.000, 0.000, 0.020, 6.310, 16.264
-0.883, -3.680, -8.000, -0.000, 0.000, 0.020, 6.383, 16.264
-0.960, -3.840, -8.000, 0.000, 0.000, 0.020, 6.460, 16.264
-1.040, -4.000, -8.000, 0.000, 0.000, 0.020, 6.540, 16.264
-1.120, -4.000, 0.000, 400.000, 0.000, 0.020, 6.620, 16.264
-1.200, -4.000, 0.000, 0.000, 0.000, 0.020, 6.700, 16.264
-1.280, -4.000, 0.000, 0.000, 0.000, 0.020, 6.780, 16.264
-1.360, -4.000, 0.000, 0.000, 0.000, 0.020, 6.860, 16.264
-1.440, -4.000, 0.000, 0.000, 0.000, 0.020, 6.940, 16.264
-1.520, -4.000, 0.000, 0.000, 0.000, 0.020, 7.020, 16.264
-1.600, -4.000, 0.000, 0.000, 0.000, 0.020, 7.100, 16.264
-1.680, -4.000, -0.000, -0.000, 0.000, 0.020, 7.180, 16.264
-1.760, -4.000, 0.000, 0.000, 0.000, 0.020, 7.260, 16.264
-1.840, -4.000, 0.000, 0.000, 0.000, 0.020, 7.340, 16.264
-1.920, -4.000, 0.000, 0.000, 0.000, 0.020, 7.420, 16.264
-2.000, -4.000, 0.000, 0.000, 0.000, 0.020, 7.500, 16.264
-2.080, -4.000, 0.000, 0.000, 0.000, 0.020, 7.580, 16.264
-2.160, -4.000, 0.000, 0.000, 0.000, 0.020, 7.660, 16.264
-2.240, -4.000, 0.000, 0.000, 0.000, 0.020, 7.740, 16.264
-2.320, -4.000, -0.000, -0.000, 0.000, 0.020, 7.820, 16.264
-2.400, -4.000, -0.000, 0.000, 0.000, 0.020, 7.900, 16.264
-2.480, -4.000, 0.000, 0.000, 0.000, 0.020, 7.980, 16.264
-2.560, -4.000, 0.000, 0.000, 0.000, 0.020, 8.060, 16.264
-2.640, -4.000, 0.000, 0.000, 0.000, 0.020, 8.140, 16.264
-2.720, -4.000, 0.000, 0.000, 0.000, 0.020, 8.220, 16.264
-2.800, -4.000, 0.000, 0.000, 0.000, 0.020, 8.300, 16.264
-2.880, -4.000, 0.000, 0.000, 0.000, 0.020, 8.380, 16.264
-2.960, -4.000, 0.000, 0.000, 0.000, 0.020, 8.460, 16.264
-3.040, -4.000, 0.000, 0.000, 0.000, 0.020, 8.540, 16.264
-3.120, -4.000, 0.000, 0.000, 0.000, 0.020, 8.620, 16.264
-3.200, -4.000, 0.000, 0.000, 0.000, 0.020, 8.700, 16.264
-3.280, -4.000, 0.000, 0.000, 0.000, 0.020, 8.780, 16.264
-3.360, -4.000, 0.000, 0.000, 0.000, 0.020, 8.860, 16.264
-3.440, -4.000, -0.000, -0.000, 0.000, 0.020, 8.940, 16.264
-3.520, -4.000, 0.000, 0.000, 0.000, 0.020, 9.020, 16.264
-3.600, -4.000, 0.000, 0.000, 0.000, 0.020, 9.100, 16.264
-3.680, -4.000, 0.000, 0.000, 0.000, 0.020, 9.180, 16.264
-3.760, -4.000, 0.000, 0.000, 0.000, 0.020, 9.260, 16.264
-3.840, -4.000, 0.000, 0.000, 0.000, 0.020, 9.340, 16.264
-3.920, -4.000, 0.000, 0.000, 0.000, 0.020, 9.420, 16.264
-4.000, -4.000, 0.000, 0.000, 0.000, 0.020, 9.500, 16.264
-4.080, -4.000, 0.000, 0.000, 0.000, 0.020, 9.580, 16.264
-4.160, -4.000, 0.000, 0.000, 0.000, 0.020, 9.660, 16.264
-4.240, -4.000, 0.000, 0.000, 0.000, 0.020, 9.740, 16.264
-4.320, -4.000, 0.000, 0.000, 0.000, 0.020, 9.820, 16.264
-4.400, -4.000, 0.000, 0.000, 0.000, 0.020, 9.900, 16.264
-4.480, -4.000, -200.000, -20000.000, 0.000, 0.020, 9.980, 16.264
-4.560, -4.007, -0.325, 9983.735, 0.000, 0.020, 10.060, 16.264
-4.641, -4.029, -1.104, -38.952, 0.001, 0.020, 10.141, 16.264
-4.722, -4.051, -1.110, -0.302, 0.002, 0.020, 10.222, 16.264
-4.803, -4.072, -1.082, 1.432, 0.003, 0.020, 10.303, 16.264
-4.885, -4.094, -1.055, 1.349, 0.005, 0.020, 10.385, 16.265
-4.967, -4.114, -1.029, 1.275, 0.007, 0.020, 10.467, 16.265
-5.050, -4.134, -1.005, 1.208, 0.009, 0.020, 10.550, 16.266
-5.133, -4.154, -0.982, 1.149, 0.012, 0.020, 10.633, 16.267
-5.217, -4.173, -0.960, 1.098, 0.015, 0.020, 10.717, 16.268
-5.300, -4.192, -0.939, 1.053, 0.019, 0.020, 10.800, 16.269
-5.385, -4.210, -0.919, 1.015, 0.023, 0.020, 10.885, 16.271
-5.469, -4.228, -0.899, 0.984, 0.027, 0.020, 10.969, 16.273
-5.554, -4.246, -0.880, 0.959, 0.031, 0.020, 11.054, 16.275
-5.639, -4.263, -0.861, 0.941, 0.036, 0.020, 11.139, 16.278
-5.725, -4.280, -0.843, 0.928, 0.041, 0.020, 11.225, 16.282
-5.811, -4.296, -0.824, 0.921, 0.047, 0.020, 11.311, 16.285
-5.897, -4.312, -0.806, 0.920, 0.052, 0.020, 11.397, 16.290
-5.984, -4.328, -0.787, 0.924, 0.058, 0.020, 11.483, 16.294
-6.071, -4.344, -0.769, 0.934, 0.065, 0.020, 11.570, 16.300
-6.158, -4.359, -0.750, 0.948, 0.071, 0.020, 11.657, 16.306
-6.245, -4.373, -0.730, 0.967, 0.078, 0.020, 11.744, 16.312
-6.333, -4.387, -0.710, 0.990, 0.085, 0.020, 11.831, 16.319
-6.421, -4.401, -0.690, 1.018, 0.093, 0.020, 11.919, 16.327
-6.509, -4.415, -0.669, 1.049, 0.100, 0.020, 12.007, 16.336
-6.598, -4.428, -0.647, 1.083, 0.108, 0.020, 12.095, 16.345
-6.687, -4.440, -0.625, 1.121, 0.116, 0.020, 12.183, 16.355
-6.776, -4.452, -0.602, 1.161, 0.124, 0.020, 12.272, 16.365
-6.865, -4.464, -0.578, 1.203, 0.133, 0.020, 12.360, 16.377
-6.954, -4.475, -0.553, 1.247, 0.142, 0.020, 12.449, 16.389
-7.044, -4.485, -0.527, 1.292, 0.151, 0.020, 12.538, 16.402
-7.134, -4.495, -0.500, 1.337, 0.160, 0.020, 12.627, 16.416
-7.224, -4.505, -0.473, 1.383, 0.169, 0.020, 12.715, 16.431
-7.314, -4.514, -0.444, 1.428, 0.178, 0.020, 12.804, 16.446
-7.405, -4.522, -0.415, 1.473, 0.188, 0.020, 12.893, 16.463
-7.495, -4.530, -0.384, 1.515, 0.198, 0.020, 12.982, 16.480
-7.586, -4.537, -0.353, 1.556, 0.207, 0.020, 13.071, 16.498
-7.677, -4.543, -0.321, 1.593, 0.217, 0.020, 13.160, 16.518
-7.768, -4.549, -0.289, 1.628, 0.227, 0.020, 13.249, 16.538
-7.859, -4.554, -0.256, 1.658, 0.238, 0.020, 13.337, 16.559
-7.950, -4.558, -0.222, 1.685, 0.248, 0.020, 13.426, 16.581
-8.041, -4.562, -0.188, 1.707, 0.258, 0.020, 13.514, 16.603
-8.133, -4.565, -0.153, 1.724, 0.269, 0.020, 13.602, 16.627
-8.224, -4.568, -0.118, 1.736, 0.279, 0.020, 13.690, 16.652
-8.315, -4.569, -0.084, 1.742, 0.289, 0.020, 13.778, 16.678
-8.407, -4.570, -0.049, 1.742, 0.300, 0.020, 13.865, 16.704
-8.498, -4.570, -0.014, 1.737, 0.310, 0.020, 13.953, 16.732
-8.590, -4.570, 0.020, 1.726, 0.321, 0.020, 14.039, 16.760
-8.681, -4.569, 0.055, 1.708, 0.331, 0.020, 14.126, 16.789
-8.772, -4.567, 0.088, 1.686, 0.342, 0.020, 14.212, 16.819
-8.864, -4.565, 0.121, 1.657, 0.352, 0.020, 14.298, 16.850
-8.955, -4.562, 0.154, 1.624, 0.362, 0.020, 14.384, 16.882
-9.046, -4.558, 0.186, 1.585, 0.373, 0.020, 14.469, 16.915
-9.137, -4.554, 0.216, 1.542, 0.383, 0.020, 14.553, 16.949
-9.228, -4.549, 0.246, 1.494, 0.393, 0.020, 14.637, 16.983
-9.319, -4.543, 0.275, 1.442, 0.403, 0.020, 14.721, 17.018
-9.410, -4.537, 0.303, 1.387, 0.413, 0.020, 14.805, 17.054
-9.500, -4.531, 0.330, 1.330, 0.422, 0.020, 14.887, 17.091
-9.591, -4.523, 0.355, 1.269, 0.432, 0.020, 14.970, 17.128
-9.681, -4.516, 0.379, 1.207, 0.441, 0.020, 15.052, 17.167
-9.771, -4.508, 0.402, 1.144, 0.451, 0.020, 15.133, 17.205
-9.861, -4.499, 0.424, 1.079, 0.460, 0.020, 15.214, 17.245
-9.951, -4.490, 0.444, 1.014, 0.469, 0.020, 15.294, 17.285
-10.041, -4.481, 0.463, 0.949, 0.478, 0.020, 15.374, 17.326
-10.130, -4.472, 0.480, 0.885, 0.486, 0.020, 15.453, 17.368
-10.219, -4.462, 0.497, 0.821, 0.495, 0.020, 15.532, 17.410
-10.308, -4.451, 0.512, 0.759, 0.503, 0.020, 15.610, 17.452
-10.397, -4.441, 0.526, 0.698, 0.511, 0.020, 15.688, 17.495
-10.486, -4.430, 0.539, 0.639, 0.519, 0.020, 15.765, 17.539
-10.574, -4.419, 0.550, 0.581, 0.527, 0.020, 15.841, 17.583
-10.662, -4.408, 0.561, 0.526, 0.534, 0.020, 15.917, 17.628
-10.750, -4.397, 0.570, 0.474, 0.542, 0.020, 15.993, 17.673
-10.838, -4.385, 0.579, 0.424, 0.549, 0.020, 16.068, 17.718
-10.925, -4.373, 0.586, 0.377, 0.555, 0.020, 16.142, 17.764
-11.013, -4.361, 0.593, 0.332, 0.562, 0.020, 16.216, 17.810
-11.100, -4.349, 0.599, 0.291, 0.568, 0.020, 16.290, 17.857
-11.186, -4.337, 0.604, 0.252, 0.575, 0.020, 16.363, 17.904
-11.273, -4.325, 0.608, 0.216, 0.581, 0.020, 16.435, 17.951
-11.359, -4.313, 0.612, 0.182, 0.586, 0.020, 16.507, 17.999
-11.445, -4.301, 0.615, 0.152, 0.592, 0.020, 16.579, 18.046
-11.531, -4.288, 0.617, 0.124, 0.597, 0.020, 16.650, 18.094
-11.617, -4.276, 0.619, 0.099, 0.602, 0.020, 16.720, 18.143
-11.702, -4.263, 0.621, 0.077, 0.607, 0.020, 16.790, 18.191
-11.787, -4.251, 0.622, 0.056, 0.612, 0.020, 16.860, 18.240
-11.872, -4.239, 0.623, 0.039, 0.616, 0.020, 16.929, 18.289
-11.956, -4.226, 0.623, 0.023, 0.620, 0.020, 16.998, 18.338
-12.040, -4.214, 0.624, 0.010, 0.624, 0.020, 17.067, 18.387
-12.124, -4.201, 0.623, -0.002, 0.628, 0.020, 17.135, 18.436
-12.208, -4.189, 0.623, -0.011, 0.631, 0.020, 17.203, 18.485
-12.292, -4.176, 0.623, -0.019, 0.634, 0.020, 17.270, 18.535
-12.375, -4.164, 0.622, -0.025, 0.637, 0.020, 17.337, 18.584
-12.458, -4.151, 0.622, -0.030, 0.640, 0.020, 17.404, 18.634
-12.541, -4.139, 0.621, -0.033, 0.643, 0.020, 17.470, 18.683
-12.623, -4.126, 0.620, -0.035, 0.645, 0.020, 17.536, 18.733
-12.706, -4.114, 0.620, -0.035, 0.647, 0.020, 17.602, 18.782
-12.788, -4.102, 0.619, -0.035, 0.649, 0.020, 17.667, 18.832
-12.869, -4.089, 0.618, -0.034, 0.651, 0.020, 17.732, 18.881
-12.951, -4.077, 0.618, -0.031, 0.652, 0.020, 17.797, 18.931
-13.032, -4.065, 0.617, -0.028, 0.653, 0.020, 17.862, 18.980
-13.113, -4.052, 0.617, -0.025, 0.654, 0.020, 17.926, 19.029
-13.194, -4.040, 0.616, -0.021, 0.655, 0.020, 17.990, 19.079
-13.275, -4.028, 0.616, -0.016, 0.656, 0.020, 18.054, 19.128
-13.355, -4.015, 0.616, -0.011, 0.656, 0.020, 18.117, 19.177
-13.435, -4.003, 0.616, -0.006, 0.656, 0.020, 18.181, 19.225
-13.515, -3.991, 0.616, -0.001, 0.656, 0.020, 18.244, 19.274
-13.594, -3.978, 0.616, 0.004, 0.655, 0.020, 18.307, 19.323
-13.674, -3.966, 0.616, 0.009, 0.655, 0.020, 18.370, 19.371
-13.753, -3.954, 0.616, 0.014, 0.654, 0.020, 18.433, 19.419
-13.832, -3.941, 0.616, 0.019, 0.653, 0.020, 18.496, 19.467
-13.910, -3.929, 0.617, 0.023, 0.651, 0.020, 18.558, 19.515
-13.989, -3.917, 0.617, 0.027, 0.650, 0.020, 18.620, 19.562
-14.067, -3.904, 0.618, 0.030, 0.648, 0.020, 18.683, 19.609
-14.144, -3.892, 0.619, 0.033, 0.646, 0.020, 18.745, 19.656
-14.222, -3.880, 0.619, 0.034, 0.644, 0.020, 18.807, 19.703
-14.299, -3.867, 0.620, 0.035, 0.642, 0.020, 18.869, 19.749
-14.376, -3.855, 0.621, 0.035, 0.639, 0.020, 18.930, 19.795
-14.453, -3.842, 0.621, 0.034, 0.636, 0.020, 18.992, 19.841
-14.530, -3.830, 0.622, 0.031, 0.633, 0.020, 19.054, 19.886
-14.606, -3.817, 0.623, 0.028, 0.630, 0.020, 19.115, 19.932
-14.682, -3.805, 0.623, 0.022, 0.626, 0.020, 19.177, 19.976
-14.758, -3.793, 0.623, 0.015, 0.622, 0.020, 19.239, 20.021
-14.834, -3.780, 0.624, 0.007, 0.618, 0.020, 19.300, 20.064
-14.909, -3.768, 0.623, -0.004, 0.614, 0.020, 19.362, 20.108
-14.984, -3.755, 0.623, -0.016, 0.609, 0.020, 19.423, 20.151
-15.059, -3.743, 0.623, -0.031, 0.605, 0.020, 19.485, 20.194
-15.134, -3.730, 0.622, -0.047, 0.600, 0.020, 19.546, 20.236
-15.208, -3.718, 0.620, -0.066, 0.594, 0.020, 19.608, 20.278
-15.282, -3.705, 0.619, -0.088, 0.589, 0.020, 19.669, 20.319
-15.356, -3.693, 0.616, -0.111, 0.583, 0.020, 19.731, 20.360
-15.430, -3.681, 0.614, -0.138, 0.578, 0.020, 19.792, 20.400
-15.503, -3.669, 0.610, -0.167, 0.572, 0.020, 19.854, 20.440
-15.576, -3.657, 0.606, -0.199, 0.565, 0.020, 19.915, 20.480
-15.649, -3.645, 0.602, -0.234, 0.559, 0.020, 19.977, 20.519
-15.722, -3.633, 0.596, -0.271, 0.552, 0.020, 20.039, 20.557
-15.794, -3.621, 0.590, -0.311, 0.545, 0.020, 20.101, 20.595
-15.866, -3.609, 0.583, -0.354, 0.538, 0.020, 20.162, 20.632
-15.938, -3.598, 0.575, -0.400, 0.530, 0.020, 20.224, 20.668
-16.010, -3.586, 0.566, -0.449, 0.523, 0.020, 20.286, 20.704
-16.082, -3.575, 0.556, -0.500, 0.515, 0.020, 20.348, 20.740
-16.153, -3.564, 0.545, -0.554, 0.507, 0.020, 20.411, 20.775
-16.224, -3.554, 0.533, -0.610, 0.499, 0.020, 20.473, 20.809
-16.295, -3.543, 0.519, -0.668, 0.491, 0.020, 20.535, 20.843
-16.365, -3.533, 0.505, -0.729, 0.482, 0.020, 20.598, 20.876
-16.436, -3.523, 0.489, -0.790, 0.473, 0.020, 20.660, 20.908
-16.506, -3.514, 0.472, -0.854, 0.464, 0.020, 20.723, 20.940
-16.576, -3.505, 0.453, -0.918, 0.455, 0.020, 20.786, 20.971
-16.646, -3.496, 0.434, -0.982, 0.446, 0.020, 20.849, 21.001
-16.716, -3.488, 0.413, -1.047, 0.437, 0.020, 20.912, 21.031
-16.786, -3.480, 0.391, -1.112, 0.427, 0.020, 20.975, 21.060
-16.855, -3.473, 0.367, -1.176, 0.417, 0.020, 21.038, 21.089
-16.924, -3.466, 0.342, -1.239, 0.408, 0.020, 21.102, 21.117
-16.994, -3.460, 0.316, -1.300, 0.398, 0.020, 21.166, 21.144
-17.063, -3.454, 0.289, -1.359, 0.388, 0.020, 21.229, 21.170
-17.132, -3.449, 0.261, -1.416, 0.378, 0.020, 21.293, 21.196
-17.200, -3.444, 0.231, -1.469, 0.367, 0.020, 21.358, 21.221
-17.269, -3.440, 0.201, -1.519, 0.357, 0.020, 21.422, 21.245
-17.338, -3.437, 0.170, -1.564, 0.347, 0.020, 21.486, 21.269
-17.407, -3.434, 0.138, -1.605, 0.336, 0.020, 21.551, 21.292
-17.475, -3.432, 0.105, -1.642, 0.326, 0.020, 21.616, 21.314
-17.544, -3.430, 0.071, -1.673, 0.315, 0.020, 21.681, 21.336
-17.612, -3.430, 0.037, -1.698, 0.305, 0.020, 21.746, 21.357
-17.681, -3.430, 0.003, -1.718, 0.295, 0.020, 21.812, 21.377
-17.750, -3.430, -0.032, -1.732, 0.284, 0.020, 21.878, 21.397
-17.818, -3.432, -0.067, -1.741, 0.274, 0.020, 21.944, 21.416
-17.887, -3.434, -0.101, -1.743, 0.263, 0.020, 22.010, 21.434
-17.956, -3.436, -0.136, -1.740, 0.253, 0.020, 22.076, 21.451
-18.025, -3.440, -0.171, -1.731, 0.243, 0.020, 22.143, 21.468
-18.093, -3.444, -0.205, -1.716, 0.232, 0.020, 22.210, 21.484
-18.162, -3.449, -0.239, -1.697, 0.222, 0.020, 22.277, 21.500
-18.231, -3.454, -0.272, -1.672, 0.212, 0.020, 22.345, 21.515
-18.301, -3.460, -0.305, -1.644, 0.202, 0.020, 22.412, 21.529
-18.370, -3.467, -0.338, -1.611, 0.193, 0.020, 22.480, 21.543
-18.439, -3.474, -0.369, -1.575, 0.183, 0.020, 22.549, 21.556
-18.509, -3.482, -0.400, -1.535, 0.173, 0.020, 22.617, 21.568
-18.579, -3.491, -0.430, -1.494, 0.164, 0.020, 22.686, 21.580
-18.649, -3.500, -0.459, -1.450, 0.155, 0.020, 22.755, 21.591
-18.719, -3.510, -0.487, -1.406, 0.146, 0.020, 22.825, 21.601
-18.790, -3.520, -0.514, -1.360, 0.137, 0.020, 22.894, 21.611
-18.860, -3.531, -0.540, -1.314, 0.129, 0.020, 22.964, 21.621
-18.931, -3.542, -0.566, -1.269, 0.120, 0.020, 23.035, 21.630
-19.002, -3.554, -0.590, -1.225, 0.112, 0.020, 23.105, 21.638
-19.073, -3.566, -0.614, -1.181, 0.104, 0.020, 23.176, 21.645
-19.145, -3.579, -0.637, -1.140, 0.096, 0.020, 23.247, 21.653
-19.217, -3.592, -0.659, -1.102, 0.089, 0.020, 23.319, 21.659
-19.289, -3.606, -0.680, -1.066, 0.082, 0.020, 23.391, 21.665
-19.361, -3.620, -0.701, -1.033, 0.075, 0.020, 23.463, 21.671
-19.434, -3.634, -0.721, -1.003, 0.068, 0.020, 23.535, 21.676
-19.507, -3.649, -0.740, -0.978, 0.061, 0.020, 23.608, 21.681
-19.580, -3.664, -0.759, -0.957, 0.055, 0.020, 23.681, 21.685
-19.654, -3.680, -0.778, -0.940, 0.049, 0.020, 23.755, 21.689
-19.728, -3.696, -0.797, -0.928, 0.044, 0.020, 23.829, 21.693
-19.802, -3.712, -0.815, -0.922, 0.039, 0.020, 23.903, 21.696
-19.877, -3.729, -0.834, -0.920, 0.034, 0.020, 23.977, 21.698
-19.951, -3.746, -0.852, -0.924, 0.029, 0.020, 24.052, 21.701
-20.024, -3.612, 6.672, 376.222, 0.025, 0.020, 24.124, 21.703
-20.093, -3.477, 6.757, 4.226, 0.021, 0.020, 24.194, 21.704
-20.160, -3.340, 6.841, 4.200, 0.018, 0.020, 24.261, 21.705
-20.224, -3.202, 6.924, 4.155, 0.015, 0.020, 24.325, 21.706
-20.285, -3.062, 7.006, 4.094, 0.012, 0.020, 24.386, 21.707
-20.344, -2.920, 7.086, 4.018, 0.010, 0.020, 24.444, 21.708
-20.399, -2.777, 7.165, 3.928, 0.008, 0.020, 24.500, 21.708
-20.452, -2.632, 7.241, 3.825, 0.007, 0.020, 24.553, 21.709
-20.502, -2.485, 7.316, 3.708, 0.005, 0.020, 24.602, 21.709
-20.548, -2.338, 7.387, 3.579, 0.004, 0.020, 24.649, 21.709
-20.592, -2.189, 7.456, 3.437, 0.003, 0.020, 24.693, 21.709
-20.633, -2.038, 7.521, 3.282, 0.002, 0.020, 24.734, 21.710
-20.671, -1.887, 7.584, 3.114, 0.002, 0.020, 24.771, 21.710
-20.705, -1.734, 7.642, 2.934, 0.001, 0.020, 24.806, 21.710
-20.737, -1.580, 7.697, 2.742, 0.001, 0.020, 24.838, 21.710
-20.765, -1.425, 7.748, 2.538, 0.001, 0.020, 24.866, 21.710
-20.791, -1.269, 7.794, 2.322, 0.000, 0.020, 24.891, 21.710
-20.813, -1.112, 7.836, 2.095, 0.000, 0.020, 24.914, 21.710
-20.832, -0.955, 7.874, 1.857, 0.000, 0.020, 24.933, 21.710
-20.848, -0.797, 7.906, 1.611, 0.000, 0.020, 24.949, 21.710
-20.861, -0.638, 7.933, 1.356, 0.000, 0.020, 24.961, 21.710
-20.870, -0.479, 7.955, 1.094, 0.000, 0.020, 24.971, 21.710
-20.877, -0.319, 7.971, 0.826, 0.000, 0.020, 24.977, 21.710
-20.877, 0.000, 16.030, 400.055, 0.000, 0.020, 24.981, 23.890
-20.877, 0.000, 0.000, -801.494, 0.000, 0.020, 24.981, 23.890
-20.877, 0.000, 0.000, 0.000, 0.000, 0.020, 24.981, 23.890
-20.877, 0.000, 0.000, 0.000, 0.000, 0.020, 24.981, 23.890
-20.877, 0.000, 0.000, 0.000, 0.000, 0.020, 24.981, 23.890
