position,velocity,acceleration,jerk,heading,dt,x,y
0.000, 0.000, 0.000, 0.000, 0.000, 0.020, 2.000, 14.615
0.003, 0.140, 6.998, 349.909, 0.000, 0.020, 2.003, 14.615
0.008, 0.280, 6.987, -0.546, 0.000, 0.020, 2.008, 14.615
0.017, 0.419, 6.965, -1.090, 0.000, 0.020, 2.017, 14.615
0.028, 0.558, 6.933, -1.629, 0.000, 0.020, 2.028, 14.615
0.042, 0.695, 6.890, -2.161, 0.000, 0.020, 2.042, 14.615
0.058, 0.832, 6.836, -2.686, 0.000, 0.020, 2.058, 14.615
0.078, 0.968, 6.772, -3.204, 0.001, 0.020, 2.078, 14.615
0.100, 1.102, 6.698, -3.715, 0.001, 0.020, 2.100, 14.615
0.125, 1.234, 6.613, -4.221, 0.001, 0.020, 2.125, 14.615
0.152, 1.364, 6.519, -4.728, 0.002, 0.020, 2.152, 14.615
0.182, 1.492, 6.414, -5.239, 0.003, 0.020, 2.182, 14.615
0.214, 1.618, 6.299, -5.762, 0.004, 0.020, 2.214, 14.615
0.249, 1.742, 6.172, -6.305, 0.005, 0.020, 2.249, 14.615
0.286, 1.863, 6.035, -6.881, 0.007, 0.020, 2.286, 14.616
0.326, 1.980, 5.885, -7.501, 0.009, 0.020, 2.326, 14.616
0.368, 2.095, 5.721, -8.181, 0.012, 0.020, 2.368, 14.616
0.412, 2.206, 5.542, -8.940, 0.015, 0.020, 2.412, 14.617
0.458, 2.313, 5.346, -9.800, 0.019, 0.020, 2.458, 14.618
0.506, 2.415, 5.131, -10.786, 0.023, 0.020, 2.506, 14.619
0.557, 2.513, 4.892, -11.928, 0.028, 0.020, 2.557, 14.620
0.609, 2.606, 4.627, -13.262, 0.034, 0.020, 2.609, 14.622
0.661, 2.623, 0.859, -188.403, 0.041, 0.020, 2.661, 14.624
0.713, 2.585, -1.880, -136.928, 0.048, 0.020, 2.713, 14.626
0.764, 2.546, -1.951, -3.546, 0.057, 0.020, 2.764, 14.629
0.814, 2.505, -2.031, -4.002, 0.065, 0.020, 2.814, 14.632
0.863, 2.463, -2.120, -4.475, 0.075, 0.020, 2.863, 14.635
0.911, 2.419, -2.219, -4.963, 0.085, 0.020, 2.911, 14.639
0.959, 2.372, -2.329, -5.467, 0.097, 0.020, 2.958, 14.643
1.005, 2.323, -2.448, -5.984, 0.109, 0.020, 3.004, 14.648
1.051, 2.272, -2.579, -6.510, 0.122, 0.020, 3.049, 14.653
1.095, 2.217, -2.719, -7.038, 0.136, 0.020, 3.093, 14.659
1.138, 2.160, -2.871, -7.558, 0.151, 0.020, 3.136, 14.665
1.180, 2.099, -3.032, -8.057, 0.167, 0.020, 3.178, 14.672
1.221, 2.035, -3.202, -8.515, 0.185, 0.020, 3.218, 14.679
1.260, 1.967, -3.380, -8.908, 0.203, 0.020, 3.256, 14.687
1.298, 1.896, -3.564, -9.202, 0.223, 0.020, 3.293, 14.695
1.335, 1.821, -3.751, -9.358, 0.244, 0.020, 3.329, 14.703
1.370, 1.742, -3.938, -9.324, 0.267, 0.020, 3.363, 14.712
1.403, 1.660, -4.119, -9.039, 0.291, 0.020, 3.395, 14.721
1.434, 1.574, -4.287, -8.432, 0.316, 0.020, 3.425, 14.730
1.464, 1.486, -4.436, -7.425, 0.343, 0.020, 3.453, 14.740
1.492, 1.394, -4.554, -5.932, 0.372, 0.020, 3.479, 14.750
1.518, 1.302, -4.632, -3.873, 0.403, 0.020, 3.503, 14.759
1.542, 1.209, -4.655, -1.176, 0.435, 0.020, 3.525, 14.769
1.564, 1.116, -4.611, 2.203, 0.468, 0.020, 3.545, 14.779
1.585, 1.027, -4.486, 6.268, 0.504, 0.020, 3.563, 14.789
1.604, 0.941, -4.267, 10.959, 0.541, 0.020, 3.580, 14.798
1.621, 0.863, -3.944, 16.143, 0.579, 0.020, 3.594, 14.807
1.637, 0.792, -3.512, 21.600, 0.619, 0.020, 3.607, 14.816
1.652, 0.733, -2.971, 27.026, 0.659, 0.020, 3.619, 14.825
1.665, 0.686, -2.330, 32.053, 0.701, 0.020, 3.630, 14.833
1.678, 0.654, -1.605, 36.284, 0.743, 0.020, 3.640, 14.842
1.691, 0.638, -0.818, 39.350, 0.785, 0.020, 3.649, 14.851
1.704, 0.638, 0.002, 40.961, 0.828, 0.020, 3.658, 14.860
1.717, 0.654, 0.821, 40.958, 0.870, 0.020, 3.666, 14.870
1.731, 0.686, 1.607, 39.341, 0.911, 0.020, 3.675, 14.881
1.745, 0.733, 2.333, 36.271, 0.952, 0.020, 3.684, 14.892
1.761, 0.793, 2.974, 32.035, 0.992, 0.020, 3.693, 14.905
1.778, 0.863, 3.514, 27.007, 1.030, 0.020, 3.702, 14.920
1.797, 0.942, 3.945, 21.580, 1.067, 0.020, 3.711, 14.936
1.818, 1.027, 4.268, 16.123, 1.102, 0.020, 3.721, 14.955
1.840, 1.117, 4.487, 10.940, 1.136, 0.020, 3.730, 14.975
1.864, 1.209, 4.612, 6.251, 1.168, 0.020, 3.740, 14.997
1.890, 1.302, 4.655, 2.189, 1.199, 0.020, 3.750, 15.021
1.918, 1.395, 4.632, -1.187, 1.227, 0.020, 3.760, 15.047
1.948, 1.486, 4.554, -3.882, 1.255, 0.020, 3.769, 15.075
1.979, 1.575, 4.435, -5.939, 1.280, 0.020, 3.779, 15.105
2.013, 1.660, 4.287, -7.430, 1.304, 0.020, 3.788, 15.137
2.048, 1.743, 4.118, -8.436, 1.327, 0.020, 3.797, 15.171
2.084, 1.821, 3.937, -9.041, 1.348, 0.020, 3.805, 15.206
2.122, 1.896, 3.751, -9.325, 1.368, 0.020, 3.813, 15.243
2.161, 1.968, 3.563, -9.358, 1.386, 0.020, 3.821, 15.282
2.202, 2.035, 3.379, -9.202, 1.403, 0.020, 3.828, 15.322
2.244, 2.099, 3.201, -8.907, 1.420, 0.020, 3.835, 15.364
2.287, 2.160, 3.031, -8.515, 1.435, 0.020, 3.841, 15.406
2.331, 2.217, 2.870, -8.056, 1.449, 0.020, 3.846, 15.450
2.377, 2.272, 2.719, -7.558, 1.462, 0.020, 3.852, 15.495
2.423, 2.323, 2.578, -7.038, 1.474, 0.020, 3.856, 15.542
2.471, 2.372, 2.448, -6.510, 1.485, 0.020, 3.861, 15.589
2.519, 2.419, 2.328, -5.984, 1.496, 0.020, 3.865, 15.637
2.568, 2.463, 2.219, -5.467, 1.505, 0.020, 3.868, 15.686
2.619, 2.506, 2.119, -4.964, 1.514, 0.020, 3.871, 15.736
2.670, 2.546, 2.030, -4.475, 1.522, 0.020, 3.874, 15.787
2.721, 2.585, 1.950, -4.003, 1.530, 0.020, 3.876, 15.839
2.774, 2.623, 1.879, -3.547, 1.536, 0.020, 3.878, 15.891
2.827, 2.659, 1.817, -3.106, 1.543, 0.020, 3.880, 15.944
2.881, 2.694, 1.763, -2.678, 1.548, 0.020, 3.881, 15.998
2.933, 2.601, -4.687, -322.489, 1.553, 0.020, 3.882, 16.050
2.983, 2.502, -4.946, -12.975, 1.557, 0.020, 3.883, 16.100
3.031, 2.398, -5.180, -11.713, 1.560, 0.020, 3.884, 16.148
3.077, 2.290, -5.393, -10.638, 1.563, 0.020, 3.884, 16.194
3.120, 2.178, -5.587, -9.714, 1.565, 0.020, 3.884, 16.238
3.161, 2.063, -5.766, -8.911, 1.566, 0.020, 3.885, 16.279
3.200, 1.945, -5.930, -8.205, 1.568, 0.020, 3.885, 16.318
3.237, 1.823, -6.081, -7.573, 1.569, 0.020, 3.885, 16.354
3.271, 1.698, -6.221, -6.997, 1.570, 0.020, 3.885, 16.388
3.302, 1.571, -6.350, -6.462, 1.570, 0.020, 3.885, 16.420
3.331, 1.442, -6.469, -5.953, 1.570, 0.020, 3.885, 16.448
3.357, 1.311, -6.579, -5.460, 1.571, 0.020, 3.885, 16.475
3.381, 1.177, -6.678, -4.974, 1.571, 0.020, 3.885, 16.498
3.381, 0.000, -58.849, -2608.532, 1.571, 0.020, 3.885, 16.498
3.401, 0.998, 49.924, 5438.642, 1.571, 0.020, 3.885, 16.518
3.421, 0.995, -0.183, -2505.365, 1.571, 0.020, 3.885, 16.538
3.440, 0.991, -0.184, -0.043, 1.571, 0.020, 3.885, 16.558
3.460, 0.987, -0.183, 0.048, 1.571, 0.020, 3.885, 16.578
3.480, 0.984, -0.182, 0.042, 1.571, 0.020, 3.885, 16.597
3.499, 0.980, -0.181, 0.036, 1.572, 0.020, 3.885, 16.617
3.519, 0.977, -0.181, 0.031, 1.572, 0.020, 3.885, 16.636
3.538, 0.973, -0.180, 0.025, 1.573, 0.020, 3.885, 16.656
3.558, 0.969, -0.180, 0.020, 1.573, 0.020, 3.885, 16.675
3.577, 0.966, -0.180, 0.014, 1.574, 0.020, 3.885, 16.695
3.596, 0.962, -0.180, 0.009, 1.575, 0.020, 3.885, 16.714
3.616, 0.959, -0.179, 0.004, 1.575, 0.020, 3.885, 16.733
3.635, 0.955, -0.179, -0.001, 1.576, 0.020, 3.885, 16.752
3.654, 0.951, -0.180, -0.007, 1.577, 0.020, 3.884, 16.771
3.673, 0.948, -0.180, -0.012, 1.578, 0.020, 3.884, 16.790
3.692, 0.944, -0.180, -0.017, 1.579, 0.020, 3.884, 16.809
3.710, 0.941, -0.181, -0.022, 1.580, 0.020, 3.884, 16.828
3.729, 0.937, -0.181, -0.027, 1.581, 0.020, 3.884, 16.846
3.748, 0.933, -0.182, -0.032, 1.582, 0.020, 3.884, 16.865
3.766, 0.930, -0.182, -0.037, 1.584, 0.020, 3.883, 16.884
3.785, 0.926, -0.183, -0.042, 1.585, 0.020, 3.883, 16.902
3.803, 0.922, -0.184, -0.046, 1.586, 0.020, 3.883, 16.921
3.822, 0.919, -0.185, -0.051, 1.588, 0.020, 3.883, 16.939
3.840, 0.915, -0.186, -0.056, 1.589, 0.020, 3.882, 16.957
3.858, 0.911, -0.188, -0.061, 1.591, 0.020, 3.882, 16.976
3.876, 0.907, -0.189, -0.066, 1.592, 0.020, 3.882, 16.994
3.894, 0.904, -0.190, -0.071, 1.594, 0.020, 3.881, 17.012
3.912, 0.900, -0.192, -0.076, 1.596, 0.020, 3.881, 17.030
3.930, 0.896, -0.194, -0.081, 1.598, 0.020, 3.880, 17.048
3.948, 0.892, -0.195, -0.087, 1.600, 0.020, 3.880, 17.066
3.966, 0.888, -0.197, -0.092, 1.602, 0.020, 3.879, 17.083
3.984, 0.884, -0.199, -0.097, 1.604, 0.020, 3.879, 17.101
4.001, 0.880, -0.201, -0.102, 1.606, 0.020, 3.878, 17.119
4.019, 0.876, -0.203, -0.107, 1.608, 0.020, 3.877, 17.136
4.036, 0.872, -0.205, -0.113, 1.611, 0.020, 3.877, 17.153
4.054, 0.868, -0.208, -0.118, 1.613, 0.020, 3.876, 17.171
4.071, 0.863, -0.210, -0.123, 1.615, 0.020, 3.875, 17.188
4.088, 0.859, -0.213, -0.129, 1.618, 0.020, 3.875, 17.205
4.105, 0.855, -0.216, -0.134, 1.621, 0.020, 3.874, 17.222
4.122, 0.851, -0.218, -0.140, 1.623, 0.020, 3.873, 17.239
4.139, 0.846, -0.221, -0.146, 1.626, 0.020, 3.872, 17.256
4.156, 0.842, -0.224, -0.151, 1.629, 0.020, 3.871, 17.273
4.173, 0.837, -0.227, -0.157, 1.632, 0.020, 3.870, 17.290
4.189, 0.832, -0.231, -0.163, 1.635, 0.020, 3.869, 17.306
4.206, 0.828, -0.234, -0.169, 1.638, 0.020, 3.868, 17.323
4.222, 0.823, -0.238, -0.175, 1.641, 0.020, 3.867, 17.339
4.239, 0.818, -0.241, -0.181, 1.644, 0.020, 3.866, 17.356
4.255, 0.813, -0.245, -0.187, 1.648, 0.020, 3.864, 17.372
4.271, 0.808, -0.249, -0.194, 1.651, 0.020, 3.863, 17.388
4.287, 0.803, -0.253, -0.200, 1.655, 0.020, 3.862, 17.404
4.303, 0.798, -0.257, -0.206, 1.658, 0.020, 3.860, 17.420
4.319, 0.793, -0.261, -0.212, 1.662, 0.020, 3.859, 17.436
4.335, 0.788, -0.266, -0.219, 1.666, 0.020, 3.857, 17.451
4.350, 0.782, -0.270, -0.225, 1.670, 0.020, 3.856, 17.467
4.366, 0.777, -0.275, -0.232, 1.674, 0.020, 3.854, 17.482
4.381, 0.771, -0.280, -0.238, 1.678, 0.020, 3.853, 17.498
4.397, 0.765, -0.284, -0.245, 1.682, 0.020, 3.851, 17.513
4.412, 0.760, -0.289, -0.251, 1.686, 0.020, 3.849, 17.528
4.427, 0.754, -0.295, -0.258, 1.691, 0.020, 3.848, 17.543
4.442, 0.748, -0.300, -0.264, 1.695, 0.020, 3.846, 17.558
4.457, 0.742, -0.305, -0.271, 1.700, 0.020, 3.844, 17.573
4.471, 0.735, -0.311, -0.277, 1.705, 0.020, 3.842, 17.587
4.486, 0.729, -0.317, -0.284, 1.709, 0.020, 3.840, 17.602
4.500, 0.723, -0.322, -0.290, 1.714, 0.020, 3.838, 17.616
4.515, 0.716, -0.328, -0.296, 1.720, 0.020, 3.836, 17.630
4.529, 0.709, -0.334, -0.302, 1.725, 0.020, 3.834, 17.644
4.543, 0.703, -0.340, -0.308, 1.730, 0.020, 3.832, 17.658
4.557, 0.696, -0.347, -0.313, 1.736, 0.020, 3.829, 17.672
4.571, 0.689, -0.353, -0.319, 1.741, 0.020, 3.827, 17.685
4.584, 0.681, -0.360, -0.324, 1.747, 0.020, 3.825, 17.699
4.598, 0.674, -0.366, -0.328, 1.753, 0.020, 3.822, 17.712
4.611, 0.667, -0.373, -0.333, 1.759, 0.020, 3.820, 17.725
4.624, 0.659, -0.380, -0.337, 1.765, 0.020, 3.817, 17.738
4.637, 0.651, -0.386, -0.340, 1.771, 0.020, 3.815, 17.751
4.650, 0.643, -0.393, -0.343, 1.777, 0.020, 3.812, 17.763
4.663, 0.635, -0.400, -0.345, 1.784, 0.020, 3.810, 17.776
4.675, 0.627, -0.407, -0.347, 1.791, 0.020, 3.807, 17.788
4.688, 0.619, -0.414, -0.348, 1.797, 0.020, 3.804, 17.800
4.700, 0.611, -0.421, -0.348, 1.804, 0.020, 3.801, 17.812
4.712, 0.602, -0.428, -0.347, 1.812, 0.020, 3.798, 17.824
4.724, 0.593, -0.435, -0.345, 1.819, 0.020, 3.796, 17.835
4.736, 0.585, -0.442, -0.342, 1.826, 0.020, 3.793, 17.847
4.747, 0.576, -0.448, -0.338, 1.834, 0.020, 3.790, 17.858
4.758, 0.566, -0.455, -0.333, 1.842, 0.020, 3.787, 17.869
4.770, 0.557, -0.462, -0.326, 1.850, 0.020, 3.784, 17.879
4.781, 0.548, -0.468, -0.318, 1.858, 0.020, 3.781, 17.890
4.791, 0.538, -0.474, -0.308, 1.866, 0.020, 3.778, 17.900
4.802, 0.529, -0.480, -0.296, 1.875, 0.020, 3.774, 17.910
4.812, 0.519, -0.486, -0.283, 1.883, 0.020, 3.771, 17.920
4.822, 0.509, -0.491, -0.268, 1.892, 0.020, 3.768, 17.930
4.832, 0.499, -0.496, -0.250, 1.901, 0.020, 3.765, 17.939
4.842, 0.489, -0.501, -0.231, 1.910, 0.020, 3.762, 17.949
4.852, 0.479, -0.505, -0.209, 1.919, 0.020, 3.759, 17.958
4.861, 0.469, -0.509, -0.185, 1.929, 0.020, 3.755, 17.966
4.870, 0.459, -0.512, -0.158, 1.939, 0.020, 3.752, 17.975
4.879, 0.449, -0.514, -0.128, 1.949, 0.020, 3.749, 17.983
4.888, 0.438, -0.516, -0.096, 1.959, 0.020, 3.745, 17.991
4.897, 0.428, -0.517, -0.061, 1.969, 0.020, 3.742, 17.999
4.905, 0.417, -0.518, -0.024, 1.979, 0.020, 3.739, 18.007
4.913, 0.407, -0.518, 0.017, 1.990, 0.020, 3.736, 18.014
4.921, 0.397, -0.516, 0.060, 2.001, 0.020, 3.732, 18.022
4.929, 0.387, -0.514, 0.106, 2.012, 0.020, 3.729, 18.029
4.936, 0.376, -0.511, 0.156, 2.023, 0.020, 3.726, 18.036
4.944, 0.366, -0.507, 0.207, 2.034, 0.020, 3.723, 18.042
4.951, 0.356, -0.502, 0.262, 2.046, 0.020, 3.719, 18.048
4.958, 0.346, -0.495, 0.319, 2.058, 0.020, 3.716, 18.055
4.964, 0.336, -0.488, 0.379, 2.070, 0.020, 3.713, 18.061
4.971, 0.327, -0.479, 0.440, 2.082, 0.020, 3.710, 18.066
4.977, 0.318, -0.469, 0.504, 2.094, 0.020, 3.707, 18.072
4.983, 0.308, -0.457, 0.570, 2.106, 0.020, 3.704, 18.077
4.989, 0.299, -0.445, 0.636, 2.119, 0.020, 3.701, 18.082
4.995, 0.291, -0.431, 0.704, 2.132, 0.020, 3.697, 18.087
5.001, 0.283, -0.415, 0.772, 2.144, 0.020, 3.694, 18.092
5.006, 0.275, -0.398, 0.840, 2.157, 0.020, 3.691, 18.097
5.012, 0.267, -0.380, 0.908, 2.171, 0.020, 3.688, 18.101
5.017, 0.260, -0.361, 0.976, 2.184, 0.020, 3.685, 18.105
5.022, 0.253, -0.340, 1.041, 2.197, 0.020, 3.683, 18.109
5.027, 0.247, -0.318, 1.105, 2.211, 0.020, 3.680, 18.113
5.032, 0.241, -0.294, 1.166, 2.224, 0.020, 3.677, 18.117
5.036, 0.235, -0.270, 1.224, 2.238, 0.020, 3.674, 18.121
5.041, 0.230, -0.244, 1.279, 2.252, 0.020, 3.671, 18.124
5.046, 0.226, -0.218, 1.329, 2.266, 0.020, 3.668, 18.128
5.050, 0.222, -0.190, 1.375, 2.280, 0.020, 3.665, 18.131
5.054, 0.219, -0.162, 1.416, 2.294, 0.020, 3.662, 18.135
5.059, 0.216, -0.133, 1.451, 2.308, 0.020, 3.659, 18.138
5.063, 0.214, -0.103, 1.480, 2.322, 0.020, 3.657, 18.141
5.067, 0.213, -0.073, 1.503, 2.336, 0.020, 3.654, 18.144
5.072, 0.212, -0.043, 1.519, 2.350, 0.020, 3.651, 18.147
5.076, 0.212, -0.012, 1.529, 2.364, 0.020, 3.648, 18.150
5.080, 0.212, 0.018, 1.531, 2.378, 0.020, 3.645, 18.153
5.084, 0.213, 0.049, 1.527, 2.393, 0.020, 3.642, 18.156
5.089, 0.215, 0.079, 1.516, 2.407, 0.020, 3.638, 18.159
5.093, 0.217, 0.109, 1.499, 2.421, 0.020, 3.635, 18.162
5.097, 0.220, 0.139, 1.475, 2.435, 0.020, 3.632, 18.165
5.102, 0.223, 0.168, 1.445, 2.449, 0.020, 3.628, 18.168
5.106, 0.227, 0.196, 1.408, 2.462, 0.020, 3.625, 18.170
5.111, 0.231, 0.223, 1.367, 2.476, 0.020, 3.621, 18.173
5.116, 0.236, 0.249, 1.320, 2.490, 0.020, 3.618, 18.176
5.120, 0.242, 0.275, 1.269, 2.504, 0.020, 3.614, 18.179
5.125, 0.248, 0.299, 1.213, 2.517, 0.020, 3.610, 18.182
5.131, 0.254, 0.322, 1.155, 2.530, 0.020, 3.605, 18.185
5.136, 0.261, 0.344, 1.093, 2.544, 0.020, 3.601, 18.188
5.141, 0.268, 0.365, 1.029, 2.557, 0.020, 3.597, 18.191
5.147, 0.276, 0.384, 0.963, 2.570, 0.020, 3.592, 18.194
5.152, 0.284, 0.402, 0.895, 2.583, 0.020, 3.587, 18.197
5.158, 0.292, 0.418, 0.827, 2.595, 0.020, 3.582, 18.200
5.164, 0.301, 0.433, 0.759, 2.608, 0.020, 3.577, 18.203
5.170, 0.310, 0.447, 0.691, 2.620, 0.020, 3.572, 18.206
5.177, 0.319, 0.460, 0.623, 2.632, 0.020, 3.566, 18.209
5.183, 0.329, 0.471, 0.557, 2.644, 0.020, 3.560, 18.213
5.190, 0.338, 0.481, 0.492, 2.656, 0.020, 3.555, 18.216
5.197, 0.348, 0.489, 0.428, 2.668, 0.020, 3.548, 18.219
5.204, 0.358, 0.497, 0.367, 2.680, 0.020, 3.542, 18.222
5.212, 0.368, 0.503, 0.308, 2.691, 0.020, 3.535, 18.226
5.219, 0.378, 0.508, 0.251, 2.702, 0.020, 3.529, 18.229
5.227, 0.389, 0.512, 0.197, 2.713, 0.020, 3.521, 18.232
5.235, 0.399, 0.515, 0.146, 2.724, 0.020, 3.514, 18.235
5.243, 0.409, 0.517, 0.097, 2.734, 0.020, 3.507, 18.239
5.252, 0.419, 0.518, 0.051, 2.745, 0.020, 3.499, 18.242
5.260, 0.430, 0.518, 0.009, 2.755, 0.020, 3.491, 18.245
5.269, 0.440, 0.517, -0.031, 2.765, 0.020, 3.483, 18.248
5.278, 0.451, 0.516, -0.068, 2.775, 0.020, 3.474, 18.252
5.287, 0.461, 0.514, -0.103, 2.785, 0.020, 3.466, 18.255
5.297, 0.471, 0.511, -0.134, 2.794, 0.020, 3.457, 18.258
5.306, 0.481, 0.508, -0.163, 2.803, 0.020, 3.448, 18.261
5.316, 0.491, 0.504, -0.190, 2.813, 0.020, 3.439, 18.265
5.326, 0.501, 0.500, -0.213, 2.821, 0.020, 3.429, 18.268
5.336, 0.511, 0.495, -0.235, 2.830, 0.020, 3.419, 18.271
5.347, 0.521, 0.490, -0.254, 2.839, 0.020, 3.410, 18.274
5.357, 0.531, 0.485, -0.271, 2.847, 0.020, 3.399, 18.277
5.368, 0.540, 0.479, -0.286, 2.855, 0.020, 3.389, 18.280
5.379, 0.550, 0.473, -0.299, 2.864, 0.020, 3.378, 18.283
5.390, 0.559, 0.467, -0.310, 2.871, 0.020, 3.368, 18.286
5.402, 0.568, 0.460, -0.320, 2.879, 0.020, 3.357, 18.289
5.413, 0.577, 0.454, -0.327, 2.887, 0.020, 3.346, 18.292
5.425, 0.586, 0.447, -0.334, 2.894, 0.020, 3.334, 18.295
5.437, 0.595, 0.440, -0.339, 2.901, 0.020, 3.323, 18.298
5.449, 0.604, 0.433, -0.343, 2.909, 0.020, 3.311, 18.301
5.461, 0.612, 0.427, -0.346, 2.916, 0.020, 3.299, 18.304
5.474, 0.621, 0.420, -0.347, 2.922, 0.020, 3.287, 18.307
5.486, 0.629, 0.413, -0.348, 2.929, 0.020, 3.275, 18.309
5.499, 0.637, 0.406, -0.348, 2.936, 0.020, 3.262, 18.312
5.512, 0.645, 0.399, -0.347, 2.942, 0.020, 3.250, 18.314
5.525, 0.653, 0.392, -0.345, 2.948, 0.020, 3.237, 18.317
5.538, 0.660, 0.385, -0.343, 2.954, 0.020, 3.224, 18.320
5.551, 0.668, 0.378, -0.340, 2.960, 0.020, 3.211, 18.322
5.565, 0.675, 0.371, -0.336, 2.966, 0.020, 3.197, 18.324
5.579, 0.683, 0.365, -0.332, 2.972, 0.020, 3.184, 18.327
5.592, 0.690, 0.358, -0.328, 2.977, 0.020, 3.170, 18.329
5.606, 0.697, 0.352, -0.323, 2.983, 0.020, 3.156, 18.331
5.620, 0.704, 0.345, -0.318, 2.988, 0.020, 3.143, 18.333
5.635, 0.711, 0.339, -0.312, 2.993, 0.020, 3.129, 18.336
5.649, 0.717, 0.333, -0.307, 2.998, 0.020, 3.114, 18.338
5.663, 0.724, 0.327, -0.301, 3.003, 0.020, 3.100, 18.340
5.678, 0.730, 0.321, -0.295, 3.008, 0.020, 3.086, 18.342
5.693, 0.737, 0.315, -0.289, 3.013, 0.020, 3.071, 18.344
5.708, 0.743, 0.310, -0.283, 3.017, 0.020, 3.056, 18.346
5.723, 0.749, 0.304, -0.276, 3.022, 0.020, 3.041, 18.347
5.738, 0.755, 0.299, -0.270, 3.026, 0.020, 3.026, 18.349
5.753, 0.761, 0.294, -0.263, 3.031, 0.020, 3.011, 18.351
5.768, 0.766, 0.288, -0.257, 3.035, 0.020, 2.996, 18.352
5.784, 0.772, 0.283, -0.250, 3.039, 0.020, 2.981, 18.354
5.799, 0.778, 0.278, -0.244, 3.043, 0.020, 2.965, 18.356
5.815, 0.783, 0.274, -0.237, 3.047, 0.020, 2.950, 18.357
5.831, 0.789, 0.269, -0.231, 3.051, 0.020, 2.934, 18.359
5.846, 0.794, 0.265, -0.224, 3.054, 0.020, 2.918, 18.360
5.862, 0.799, 0.260, -0.218, 3.058, 0.020, 2.902, 18.361
5.879, 0.804, 0.256, -0.211, 3.061, 0.020, 2.886, 18.363
5.895, 0.809, 0.252, -0.205, 3.065, 0.020, 2.870, 18.364
5.911, 0.814, 0.248, -0.199, 3.068, 0.020, 2.854, 18.365
5.927, 0.819, 0.244, -0.193, 3.071, 0.020, 2.837, 18.366
5.944, 0.824, 0.240, -0.186, 3.074, 0.020, 2.821, 18.368
5.960, 0.829, 0.237, -0.180, 3.078, 0.020, 2.804, 18.369
5.977, 0.833, 0.233, -0.174, 3.081, 0.020, 2.788, 18.370
5.994, 0.838, 0.230, -0.168, 3.083, 0.020, 2.771, 18.371
6.011, 0.842, 0.227, -0.162, 3.086, 0.020, 2.754, 18.372
6.028, 0.847, 0.224, -0.156, 3.089, 0.020, 2.737, 18.373
6.045, 0.851, 0.221, -0.151, 3.092, 0.020, 2.720, 18.373
6.062, 0.856, 0.218, -0.145, 3.094, 0.020, 2.703, 18.374
6.079, 0.860, 0.215, -0.139, 3.097, 0.020, 2.686, 18.375
6.096, 0.864, 0.212, -0.134, 3.099, 0.020, 2.669, 18.376
6.114, 0.868, 0.210, -0.128, 3.102, 0.020, 2.651, 18.376
6.131, 0.873, 0.207, -0.123, 3.104, 0.020, 2.634, 18.377
6.149, 0.877, 0.205, -0.117, 3.106, 0.020, 2.616, 18.378
6.166, 0.881, 0.203, -0.112, 3.108, 0.020, 2.599, 18.378
6.184, 0.885, 0.200, -0.107, 3.110, 0.020, 2.581, 18.379
6.202, 0.889, 0.198, -0.101, 3.112, 0.020, 2.563, 18.380
6.220, 0.893, 0.197, -0.096, 3.114, 0.020, 2.546, 18.380
6.238, 0.896, 0.195, -0.091, 3.116, 0.020, 2.528, 18.381
6.256, 0.900, 0.193, -0.086, 3.118, 0.020, 2.510, 18.381
6.274, 0.904, 0.191, -0.081, 3.120, 0.020, 2.492, 18.381
6.292, 0.908, 0.190, -0.076, 3.121, 0.020, 2.473, 18.382
6.310, 0.912, 0.188, -0.071, 3.123, 0.020, 2.455, 18.382
6.328, 0.915, 0.187, -0.066, 3.124, 0.020, 2.437, 18.382
6.347, 0.919, 0.186, -0.061, 3.126, 0.020, 2.418, 18.383
6.365, 0.923, 0.185, -0.056, 3.127, 0.020, 2.400, 18.383
6.384, 0.927, 0.184, -0.051, 3.128, 0.020, 2.381, 18.383
6.402, 0.930, 0.183, -0.046, 3.130, 0.020, 2.363, 18.384
6.421, 0.934, 0.182, -0.041, 3.131, 0.020, 2.344, 18.384
6.440, 0.937, 0.181, -0.036, 3.132, 0.020, 2.325, 18.384
6.459, 0.941, 0.181, -0.031, 3.133, 0.020, 2.307, 18.384
6.477, 0.945, 0.180, -0.026, 3.134, 0.020, 2.288, 18.384
6.496, 0.948, 0.180, -0.021, 3.135, 0.020, 2.269, 18.384
6.515, 0.952, 0.179, -0.016, 3.136, 0.020, 2.250, 18.384
6.535, 0.955, 0.179, -0.011, 3.137, 0.020, 2.231, 18.385
